
DateTime,PPG,X,Y,Z,
1634618533598,399,64472,27,118,
1634618533598,418,64472,27,118,
1634618533598,443,64472,27,118,
1634618533598,408,64472,27,118,
1634618533599,421,64472,27,118,
1634618533606,428,64472,27,118,
1634618533613,447,64472,27,118,
1634618533620,418,64472,27,118,
1634618533627,438,64472,27,118,
1634618533635,429,64472,27,118,
1634618533635,431,64472,27,118,
1634618533635,433,64472,27,118,
1634618533636,439,64472,27,118,
1634618533636,426,64472,27,118,
1634618533637,445,64472,27,118,
1634618533644,431,64472,27,118,
1634618533651,406,64472,27,118,
1634618533658,435,64472,27,118,
1634618533665,430,64472,27,118,
1634618533672,451,64472,27,118,
1634618533672,416,64472,27,118,
1634618533672,412,64472,27,118,
1634618533672,453,64472,27,118,
1634618533672,435,64472,27,118,
1634618533673,430,64472,27,118,
1634618533680,431,64472,27,118,
1634618533688,420,64472,27,118,
1634618533695,428,64472,27,118,
1634618533703,429,64472,27,118,
1634618533711,426,64472,27,118,
1634618533711,412,64472,27,118,
1634618533711,414,64472,27,118,
1634618533711,436,64472,27,118,
1634618533711,444,64472,27,118,
1634618533711,437,64472,27,118,
1634618533718,423,64472,27,118,
1634618533725,436,64472,27,118,
1634618533732,446,64472,27,118,
1634618533739,437,64472,27,118,
1634618533747,422,64472,27,118,
1634618533747,443,64472,27,118,
1634618533747,423,64472,27,118,
1634618533747,420,64472,27,118,
1634618533747,449,64472,27,118,
1634618533748,423,64472,27,118,
1634618533755,428,64472,27,118,
1634618533762,417,64472,27,118,
1634618533770,427,64472,27,118,
1634618533777,420,64472,27,118,
1634618533785,419,64472,27,118,
1634618533792,439,64472,27,118,
1634618533800,423,64472,27,118,
1634618533807,425,64472,27,118,
1634618533815,416,64472,27,118,
1634618533823,452,64472,27,118,
1634618533823,425,64472,27,118,
1634618533823,430,64472,27,118,
1634618533823,428,64472,27,118,
1634618533823,419,64472,27,118,
1634618533824,209,64472,27,118,
1634618533831,438,64472,27,118,
1634618533838,429,64472,27,118,
1634618533845,420,64472,27,118,
1634618533852,218,64461,65409,65425,
1634618533860,455,64461,65409,65425,
1634618533860,442,64461,65409,65425,
1634618533860,433,64461,65409,65425,
1634618533860,430,64461,65409,65425,
1634618533860,452,64461,65409,65425,
1634618533861,427,64461,65409,65425,
1634618533875,432,64461,65409,65425,
1634618533889,217,64461,65409,65425,
1634618533904,421,64500,65306,65464,
1634618533918,453,64500,65306,65464,
1634618533933,455,64500,65306,65464,
1634618533933,209,64500,65306,65464,
1634618533933,416,64500,65306,65464,
1634618533934,437,64500,65306,65464,
1634618533934,454,64500,65306,65464,
1634618533935,414,64500,65306,65464,
1634618533935,421,64500,65306,65464,
1634618533936,436,64500,65306,65464,
1634618533937,418,64500,65306,65464,
1634618533938,443,64492,65304,65429,
1634618533939,450,64490,65306,65433,
1634618533939,425,64484,65309,65436,
1634618533939,210,64483,65311,65434,
1634618533939,437,64488,65316,65430,
1634618533939,433,64499,65320,65429,
1634618533940,448,64506,65322,65438,
1634618533946,432,64509,65323,65436,
1634618533952,449,64505,65320,65437,
1634618533959,448,64501,65316,65449,
1634618533965,429,64500,65317,65452,
1634618533972,453,64498,65320,65453,
1634618533972,225,64498,65319,65451,
1634618533972,448,64497,65319,65449,
1634618533973,434,64499,65313,65459,
1634618533973,235,64494,65300,65484,
1634618533974,436,64494,65298,65497,
1634618533994,413,64506,65297,65480,
1634618534015,425,64518,65295,65462,
1634618534035,447,64530,65292,65455,
1634618534056,445,64544,65284,65458,
1634618534077,212,64545,65279,65467,
1634618534077,442,64538,65282,65471,
1634618534077,213,64529,65288,65461,
1634618534077,443,64523,65298,65447,
1634618534077,209,64516,65306,65431,
1634618534078,448,64513,65311,65420,
1634618534078,440,64510,65318,65407,
1634618534078,227,64507,65328,65393,
1634618534078,455,64503,65336,65384,
1634618534078,446,64501,65339,65382,
1634618534078,451,64501,65340,65384,
1634618534078,439,64506,65339,65388,
1634618534078,438,64506,65341,65393,
1634618534078,437,64511,65343,65395,
1634618534078,445,64521,65342,65399,
1634618534078,429,64531,65336,65404,
1634618534079,431,64535,65329,65418,
1634618534080,409,64537,65323,65432,
1634618534081,424,64536,65315,65451,
1634618534082,414,64542,65316,65455,
1634618534083,417,64544,65317,65447,
1634618534090,443,64548,65319,65436,
1634618534098,223,64550,65323,65421,
1634618534106,425,64550,65324,65424,
1634618534114,430,64545,65323,65435,
1634618534122,440,64540,65328,65432,
1634618534122,448,64541,65335,65419,
1634618534122,441,64544,65342,65402,
1634618534123,421,64544,65343,65390,
1634618534123,418,64541,65341,65391,
1634618534124,214,64540,65348,65383,
1634618534132,454,64542,65348,65377,
1634618534141,421,64542,65350,65372,
1634618534150,232,64540,65347,65375,
1634618534159,252,64540,65347,65375,
1634618534168,242,64540,65344,65378,
1634618534168,444,64543,65344,65376,
1634618534168,434,64542,65336,65374,
1634618534168,212,64543,65333,65374,
1634618534168,214,64544,65327,65369,
1634618534168,226,64549,65321,65367,
1634618534173,425,64548,65318,65370,
1634618534179,432,64544,65318,65374,
1634618534185,210,64544,65318,65374,
1634618534191,438,64537,65316,65395,
1634618534197,448,64536,65317,65393,
1634618534197,252,64531,65315,65389,
1634618534197,436,64533,65314,65389,
1634618534197,435,64530,65310,65404,
1634618534197,412,64528,65310,65415,
1634618534197,394,64523,65312,65424,
1634618534204,422,64520,65313,65430,
1634618534211,446,64520,65313,65430,
1634618534218,426,64520,65313,65430,
1634618534225,399,64524,65319,65430,
1634618534233,455,64524,65316,65434,
1634618534233,447,64524,65309,65445,
1634618534233,430,64525,65309,65450,
1634618534234,447,64528,65309,65445,
1634618534234,214,64528,65309,65436,
1634618534235,455,64529,65306,65429,
1634618534242,435,64531,65304,65425,
1634618534249,219,64531,65304,65425,
1634618534256,212,64522,65295,65431,
1634618534263,233,64522,65295,65433,
1634618534271,217,64518,65298,65428,
1634618534278,223,64520,65299,65420,
1634618534285,208,64520,65302,65417,
1634618534293,449,64521,65305,65410,
1634618534300,422,64521,65305,65410,
1634618534308,428,64521,65305,65410,
1634618534309,408,64521,65305,65410,
1634618534310,227,64521,65305,65410,
1634618534312,212,64521,65305,65410,
1634618534313,433,64521,65305,65410,
1634618534315,429,64521,65305,65410,
1634618534315,445,64521,65305,65410,
1634618534315,225,64521,65305,65410,
1634618534315,434,64521,65305,65410,
1634618534315,444,64521,65305,65410,
1634618534315,449,64521,65305,65410,
1634618534321,442,64521,65305,65410,
1634618534328,215,64521,65305,65410,
1634618534334,218,64521,65305,65410,
1634618534341,421,64521,65305,65410,
1634618534348,434,64521,65305,65410,
1634618534348,211,64521,65305,65410,
1634618534348,437,64521,65305,65410,
1634618534348,443,64521,65305,65410,
1634618534348,431,64521,65305,65410,
1634618534348,450,64521,65305,65410,
1634618534355,237,64521,65305,65410,
1634618534362,442,64521,65305,65410,
1634618534369,214,64521,65305,65410,
1634618534376,217,64521,65305,65410,
1634618534383,225,64521,65305,65410,
1634618534390,425,64521,65305,65410,
1634618534398,447,64521,65305,65410,
1634618534405,441,64521,65305,65410,
1634618534413,455,64521,65305,65410,
1634618534421,218,64521,65305,65410,
1634618534421,433,64521,65305,65410,
1634618534421,401,64521,65305,65410,
1634618534422,424,64521,65305,65410,
1634618534422,220,64521,65305,65410,
1634618534423,430,64521,65305,65410,
1634618534430,411,64521,65305,65410,
1634618534437,426,64521,65305,65410,
1634618534444,425,64521,65305,65410,
1634618534451,247,64521,65305,65410,
1634618534458,452,64521,65305,65410,
1634618534459,439,64521,65305,65410,
1634618534460,442,64521,65305,65410,
1634618534462,443,64521,65305,65410,
1634618534463,211,64521,65305,65410,
1634618534465,212,64521,65305,65410,
1634618534473,213,64521,65305,65410,
1634618534481,441,64521,65305,65410,
1634618534489,451,64521,65305,65410,
1634618534497,211,64521,65305,65410,
1634618534505,425,64521,65305,65410,
1634618534505,271,64521,65305,65410,
1634618534505,442,64521,65305,65410,
1634618534505,419,64521,65305,65410,
1634618534505,452,64521,65305,65410,
1634618534505,236,64521,65305,65410,
1634618534511,440,64521,65305,65410,
1634618534517,440,64521,65305,65410,
1634618534523,435,64521,65305,65410,
1634618534529,426,64521,65305,65410,
1634618534535,418,64521,65305,65410,
1634618534535,452,64521,65305,65410,
1634618534535,415,64521,65305,65410,
1634618534535,442,64521,65305,65410,
1634618534535,216,64521,65305,65410,
1634618534535,211,64521,65305,65410,
1634618534542,438,64521,65305,65410,
1634618534549,442,64570,65477,65496,
1634618534556,433,64570,65477,65496,
1634618534563,450,64570,65477,65496,
1634618534571,442,64570,65477,65496,
1634618534571,443,64570,65477,65496,
1634618534571,208,64570,65477,65496,
1634618534571,422,64570,65477,65496,
1634618534571,406,64570,65477,65496,
1634618534572,215,64570,65477,65496,
1634618534579,451,64570,65477,65496,
1634618534586,427,64570,65477,65496,
1634618534594,433,64570,65477,65496,
1634618534601,441,64570,65477,65496,
1634618534609,436,64570,65477,65496,
1634618534610,423,64570,65477,65496,
1634618534612,436,64570,65477,65496,
1634618534613,427,64570,65477,65496,
1634618534615,449,64570,65477,65496,
1634618534617,419,64570,65477,65496,
1634618534623,218,64570,65477,65496,
1634618534630,452,64570,65477,65496,
1634618534636,432,64570,65477,65496,
1634618534643,444,64570,65477,65496,
1634618534650,211,64570,65477,65496,
1634618534650,441,64570,65477,65496,
1634618534650,451,64570,65477,65496,
1634618534650,432,64570,65477,65496,
1634618534650,430,64570,65477,65496,
1634618534650,438,64509,39,46,
1634618534656,446,64509,39,46,
1634618534663,431,64509,39,46,
1634618534669,444,64509,39,46,
1634618534676,439,64509,39,46,
1634618534683,448,64509,39,46,
1634618534690,419,64509,39,46,
1634618534698,419,64509,39,46,
1634618534706,428,64509,39,46,
1634618534714,426,64508,56,46,
1634618534722,209,64508,56,46,
1634618534722,454,64512,67,33,
1634618534722,435,64517,67,29,
1634618534723,439,64520,67,32,
1634618534723,426,64523,68,38,
1634618534724,425,64525,70,45,
1634618534730,422,64523,72,51,
1634618534737,425,64520,74,61,
1634618534744,419,64516,70,72,
1634618534751,452,64518,67,86,
1634618534758,431,64517,67,96,
1634618534759,431,64513,63,106,
1634618534761,449,64508,62,108,
1634618534763,452,64505,58,102,
1634618534765,443,64507,60,97,
1634618534767,440,64510,61,87,
1634618534773,439,64509,63,80,
1634618534780,443,64509,67,76,
1634618534786,443,64511,70,65,
1634618534793,445,64510,71,58,
1634618534800,425,64509,67,55,
1634618534806,452,64512,69,46,
1634618534813,453,64516,69,47,
1634618534819,455,64516,67,54,
1634618534826,435,64512,69,62,
1634618534833,210,64511,70,73,
1634618534833,430,64511,70,79,
1634618534833,443,64511,72,83,
1634618534834,424,64509,75,90,
1634618534834,424,64499,77,95,
1634618534835,447,64495,78,93,
1634618534835,437,64498,74,94,
1634618534835,421,64499,71,95,
1634618534835,431,64503,69,101,
1634618534835,429,64503,67,110,
1634618534836,437,64501,71,122,
1634618534843,429,64499,71,132,
1634618534850,432,64499,71,132,
1634618534857,445,64488,69,164,
1634618534864,418,64479,67,178,
1634618534871,428,64470,71,188,
1634618534871,421,64465,72,189,
1634618534871,208,64467,78,180,
1634618534872,449,64470,84,169,
1634618534872,443,64473,91,157,
1634618534873,433,64477,98,152,
1634618534880,453,64477,97,151,
1634618534887,412,64477,95,163,
1634618534894,443,64474,90,172,
1634618534901,430,64477,89,182,
1634618534908,418,64477,85,193,
1634618534909,444,64474,84,206,
1634618534911,430,64471,88,215,
1634618534913,444,64468,94,219,
1634618534915,426,64467,101,216,
1634618534917,449,64468,108,203,
1634618534923,433,64472,121,189,
1634618534930,443,64476,131,179,
1634618534936,417,64476,143,172,
1634618534943,430,64475,147,166,
1634618534950,429,64470,153,166,
1634618534956,432,64462,158,169,
1634618534963,448,64453,168,175,
1634618534970,420,64445,185,182,
1634618534977,445,64440,197,193,
1634618534984,428,64432,207,208,
1634618534984,435,64419,215,224,
1634618534984,418,64404,219,242,
1634618534984,434,64383,210,267,
1634618534984,431,64367,195,289,
1634618534985,432,64360,182,300,
1634618534999,429,64359,165,304,
1634618535013,415,64364,143,303,
1634618535028,430,64364,143,303,
1634618535042,446,64364,143,303,
1634618535057,444,64402,65,313,
1634618535057,424,64416,53,311,
1634618535057,440,64433,57,296,
1634618535057,420,64447,66,277,
1634618535057,432,64457,71,261,
1634618535057,431,64467,75,259,
1634618535057,420,64463,74,275,
1634618535057,443,64461,69,289,
1634618535057,427,64461,69,289,
1634618535057,435,64461,69,289,
1634618535058,421,64476,70,291,
1634618535059,439,64483,63,291,
1634618535061,439,64487,64,287,
1634618535063,441,64493,74,276,
1634618535065,442,64500,91,258,
1634618535067,413,64500,91,258,
1634618535074,431,64500,91,258,
1634618535081,440,64500,91,258,
1634618535089,432,64500,91,258,
1634618535096,438,64500,91,258,
1634618535104,444,64500,91,258,
1634618535104,440,64500,91,258,
1634618535104,419,64500,91,258,
1634618535104,401,64500,91,258,
1634618535104,434,64500,91,258,
1634618535104,426,64500,91,258,
1634618535109,425,64500,91,258,
1634618535115,420,64500,91,258,
1634618535121,444,64318,144,246,
1634618535127,428,64318,144,246,
1634618535133,429,64318,144,246,
1634618535133,420,64318,144,246,
1634618535133,415,64318,144,246,
1634618535134,444,64318,144,246,
1634618535134,435,64318,144,246,
1634618535135,413,64318,144,246,
1634618535143,426,64318,144,246,
1634618535151,443,64318,144,246,
1634618535159,444,64318,144,246,
1634618535167,416,64318,144,246,
1634618535176,431,64318,144,246,
1634618535176,440,64318,144,246,
1634618535176,430,64318,144,246,
1634618535176,410,64318,144,246,
1634618535176,418,64318,144,246,
1634618535176,416,64318,144,246,
1634618535182,415,64318,144,246,
1634618535188,437,64318,144,246,
1634618535195,426,64318,144,246,
1634618535201,433,64318,144,246,
1634618535208,437,64318,144,246,
1634618535208,417,64318,144,246,
1634618535208,415,64318,144,246,
1634618535209,424,64318,144,246,
1634618535209,405,64318,144,246,
1634618535210,419,64318,144,246,
1634618535217,419,64318,144,246,
1634618535224,425,64318,144,246,
1634618535231,411,64318,144,246,
1634618535238,432,64318,144,246,
1634618535246,435,64318,144,246,
1634618535246,427,64318,144,246,
1634618535246,416,64318,144,246,
1634618535246,423,64318,144,246,
1634618535246,441,64318,144,246,
1634618535247,442,64318,144,246,
1634618535254,431,64318,144,246,
1634618535262,444,64318,144,246,
1634618535270,436,64318,144,246,
1634618535278,419,64318,144,246,
1634618535286,421,64318,144,246,
1634618535295,435,64318,144,246,
1634618535304,449,64318,144,246,
1634618535313,441,64318,144,246,
1634618535322,434,64318,144,246,
1634618535331,442,64318,144,246,
1634618535331,434,64318,144,246,
1634618535331,448,64318,144,246,
1634618535331,418,64318,144,246,
1634618535331,420,64318,144,246,
1634618535331,414,64318,144,246,
1634618535336,439,64318,144,246,
1634618535341,450,64318,144,246,
1634618535347,417,64318,144,246,
1634618535352,410,64778,65008,11,
1634618535358,412,64778,65008,11,
1634618535358,423,64778,65008,11,
1634618535358,425,64778,65008,11,
1634618535359,407,64778,65008,11,
1634618535359,423,64778,65008,11,
1634618535360,444,64778,65008,11,
1634618535367,420,64778,65008,11,
1634618535375,433,64778,65008,11,
1634618535382,430,64651,65269,147,
1634618535390,421,64651,65269,147,
1634618535398,447,64651,65269,147,
1634618535398,430,64651,65269,147,
1634618535398,442,64651,65269,147,
1634618535398,417,64651,65269,147,
1634618535398,441,64651,65269,147,
1634618535398,423,64651,65269,147,
1634618535406,424,64651,65269,147,
1634618535415,448,64420,42,312,
1634618535424,447,64420,42,312,
1634618535433,438,64420,42,312,
1634618535442,421,64420,42,312,
1634618535442,436,64420,42,312,
1634618535442,444,64420,42,312,
1634618535442,450,64420,42,312,
1634618535442,425,64420,42,312,
1634618535442,452,64420,42,312,
1634618535447,432,64420,42,312,
1634618535453,214,64549,88,250,
1634618535459,423,64549,88,250,
1634618535465,449,64549,88,250,
1634618535471,453,64549,88,250,
1634618535471,421,64549,88,250,
1634618535471,426,64549,88,250,
1634618535471,422,64549,88,250,
1634618535471,431,64549,88,250,
1634618535472,438,64549,88,250,
1634618535489,429,64371,400,337,
1634618535507,216,64371,400,337,
1634618535524,212,64371,400,337,
1634618535542,444,64371,400,337,
1634618535560,442,64371,400,337,
1634618535562,216,64371,400,337,
1634618535564,428,64371,400,337,
1634618535567,436,64231,254,659,
1634618535569,427,64204,159,681,
1634618535572,432,64236,234,581,
1634618535572,447,64290,318,506,
1634618535572,454,64336,374,472,
1634618535572,432,64392,431,439,
1634618535572,451,64444,460,407,
1634618535572,441,64488,479,370,
1634618535575,436,64522,468,344,
1634618535579,442,64549,448,313,
1634618535582,423,64575,432,280,
1634618535586,450,64597,391,250,
1634618535590,233,64608,361,235,
1634618535590,449,64609,301,222,
1634618535590,442,64609,238,209,
1634618535590,208,64613,204,195,
1634618535590,213,64625,175,169,
1634618535590,214,64644,160,131,
1634618535604,451,64662,148,96,
1634618535618,433,64676,143,65,
1634618535632,444,64686,136,22,
1634618535646,451,64690,133,65520,
1634618535661,440,64690,126,65490,
1634618535661,218,64684,127,65448,
1634618535661,279,64671,130,65430,
1634618535661,218,64649,130,65424,
1634618535661,429,64630,129,65423,
1634618535661,214,64615,133,65419,
1634618535661,263,64608,149,65414,
1634618535661,218,64609,159,65413,
1634618535661,218,64609,159,65413,
1634618535661,243,64670,144,65403,
1634618535661,450,64729,171,65364,
1634618535661,210,64749,217,65379,
1634618535661,212,64705,222,65476,
1634618535662,427,64637,178,27,
1634618535662,214,64592,162,2,
1634618535663,209,64588,179,65434,
1634618535669,215,64631,193,65331,
1634618535676,445,64692,211,65261,
1634618535682,214,64745,227,65232,
1634618535689,252,64759,229,65222,
1634618535696,223,64755,220,65213,
1634618535703,237,64733,206,65191,
1634618535710,227,64720,185,65159,
1634618535718,430,64720,171,65121,
1634618535725,215,64726,163,65094,
1634618535733,253,64742,156,65077,
1634618535742,215,64759,153,65068,
1634618535751,212,64775,143,65063,
1634618535761,233,64788,130,65055,
1634618535770,403,64800,106,65050,
1634618535780,210,64808,89,65045,
1634618535780,428,64818,79,65040,
1634618535780,211,64829,80,65028,
1634618535780,241,64836,76,65024,
1634618535780,215,64836,59,65032,
1634618535780,429,64835,45,65042,
1634618535780,454,64830,42,65048,
1634618535780,242,64826,43,65060,
1634618535780,215,64822,47,65071,
1634618535780,449,64818,48,65080,
1634618535780,210,64817,39,65091,
1634618535780,441,64814,29,65107,
1634618535780,287,64810,18,65129,
1634618535780,214,64804,5,65156,
1634618535780,452,64803,0,65179,
1634618535780,210,64803,2,65200,
1634618535793,246,64803,2,65200,
1634618535806,221,64803,2,65200,
1634618535819,238,64808,20,65231,
1634618535832,219,64806,26,65219,
1634618535846,210,64803,28,65208,
1634618535846,211,64798,33,65193,
1634618535846,434,64798,37,65181,
1634618535846,233,64799,43,65169,
1634618535846,222,64807,46,65161,
1634618535847,253,64807,46,65161,
1634618535847,445,64820,61,65141,
1634618535847,210,64824,60,65134,
1634618535848,214,64826,53,65126,
1634618535848,216,64830,46,65124,
1634618535849,209,64827,45,65125,
1634618535849,449,64831,48,65125,
1634618535849,422,64835,53,65122,
1634618535850,223,64841,55,65114,
1634618535850,455,64841,55,65114,
1634618535851,226,64841,55,65114,
1634618535858,452,64841,55,65114,
1634618535865,217,64865,59,65113,
1634618535872,449,64868,70,65116,
1634618535879,285,64908,96,65095,
1634618535886,212,64955,121,65062,
1634618535894,453,64955,121,65062,
1634618535902,237,64955,121,65062,
1634618535910,242,64955,121,65062,
1634618535918,245,64955,121,65062,
1634618535927,223,64955,121,65062,
1634618535927,240,64955,121,65062,
1634618535927,259,64955,121,65062,
1634618535927,283,64955,121,65062,
1634618535927,304,64955,121,65062,
1634618535927,302,64955,121,65062,
1634618535944,381,64955,121,65062,
1634618535961,316,64955,121,65062,
1634618535979,294,64955,121,65062,
1634618535996,363,64955,121,65062,
1634618536014,446,64790,198,65251,
1634618536028,422,64790,198,65251,
1634618536042,437,64790,198,65251,
1634618536056,264,64790,198,65251,
1634618536070,284,64790,198,65251,
1634618536085,365,64790,198,65251,
1634618536088,436,64790,198,65251,
1634618536091,236,64790,198,65251,
1634618536094,335,64790,198,65251,
1634618536097,463,64790,198,65251,
1634618536100,329,64790,198,65251,
1634618536100,245,64790,198,65251,
1634618536100,475,64790,198,65251,
1634618536100,434,64790,198,65251,
1634618536100,413,64790,198,65251,
1634618536100,413,64790,198,65251,
1634618536100,436,64790,198,65251,
1634618536100,477,64790,198,65251,
1634618536100,523,64790,198,65251,
1634618536100,323,64790,198,65251,
1634618536100,438,64790,198,65251,
1634618536100,526,64790,198,65251,
1634618536100,589,64790,198,65251,
1634618536100,370,64790,198,65251,
1634618536100,437,64790,198,65251,
1634618536100,645,64790,198,65251,
1634618536100,467,64790,198,65251,
1634618536100,460,64790,198,65251,
1634618536100,677,64790,198,65251,
1634618536100,739,64790,198,65251,
1634618536100,663,64790,198,65251,
1634618536103,849,64790,198,65251,
1634618536106,971,64790,198,65251,
1634618536109,1026,64790,198,65251,
1634618536112,1306,64790,198,65251,
1634618536115,1314,64790,198,65251,
1634618536117,1546,64790,198,65251,
1634618536119,1855,64790,198,65251,
1634618536121,1946,64790,198,65251,
1634618536123,1714,64790,198,65251,
1634618536126,1747,64790,198,65251,
1634618536126,1882,64790,198,65251,
1634618536126,1834,64790,198,65251,
1634618536126,1862,64790,198,65251,
1634618536126,1870,64790,198,65251,
1634618536126,1855,64790,198,65251,
1634618536130,1860,64790,198,65251,
1634618536134,1844,64790,198,65251,
1634618536138,1794,64790,198,65251,
1634618536142,1971,64790,198,65251,
1634618536146,1878,64790,198,65251,
1634618536148,1816,64790,198,65251,
1634618536151,2003,64790,198,65251,
1634618536153,1963,64790,198,65251,
1634618536156,1855,64790,198,65251,
1634618536159,2045,64790,198,65251,
1634618536163,1951,64790,198,65251,
1634618536168,1865,64790,198,65251,
1634618536173,2017,64790,198,65251,
1634618536178,1933,64790,198,65251,
1634618536183,1841,64790,198,65251,
1634618536191,2030,64790,198,65251,
1634618536199,1952,64790,198,65251,
1634618536207,2078,64790,198,65251,
1634618536215,2020,64790,198,65251,
1634618536223,1946,64790,198,65251,
1634618536223,2098,64790,198,65251,
1634618536223,2019,64790,198,65251,
1634618536223,1944,64790,198,65251,
1634618536223,2102,64790,198,65251,
1634618536223,2027,64790,198,65251,
1634618536231,1971,64790,198,65251,
1634618536240,1916,64790,198,65251,
1634618536249,2140,64534,296,96,
1634618536258,1938,64514,333,104,
1634618536267,1992,64514,333,104,
1634618536267,1992,64514,333,104,
1634618536267,1983,64514,333,104,
1634618536267,1957,64514,333,104,
1634618536267,2158,64514,333,104,
1634618536267,1948,64514,333,104,
1634618536272,2108,64514,333,104,
1634618536278,2027,64514,333,104,
1634618536284,1990,64617,235,201,
1634618536290,1975,64617,235,201,
1634618536296,2067,64617,235,201,
1634618536296,2089,64617,235,201,
1634618536296,2081,64617,235,201,
1634618536296,2171,64617,235,201,
1634618536296,2112,64617,235,201,
1634618536297,2194,64617,235,201,
1634618536306,2042,64617,235,201,
1634618536316,2102,64623,93,114,
1634618536326,1997,64623,93,114,
1634618536336,2055,64623,93,114,
1634618536346,2236,64623,93,114,
1634618536346,2174,64583,98,99,
1634618536346,2068,64578,107,97,
1634618536346,2020,64579,121,67,
1634618536346,2088,64585,121,45,
1634618536347,2147,64583,113,40,
1634618536351,2184,64559,117,32,
1634618536356,2104,64528,128,48,
1634618536361,2114,64491,157,83,
1634618536366,2079,64452,171,139,
1634618536371,2231,64443,166,176,
1634618536379,2222,64446,148,222,
1634618536387,1987,64476,137,253,
1634618536395,2071,64493,126,276,
1634618536403,2045,64508,119,281,
1634618536412,2086,64509,127,276,
1634618536412,2067,64498,127,282,
1634618536412,1828,64478,99,298,
1634618536412,1811,64444,75,313,
1634618536412,1744,64458,116,291,
1634618536412,1822,64480,145,270,
1634618536412,1722,64494,158,247,
1634618536412,1777,64504,162,226,
1634618536412,1649,64502,163,212,
1634618536412,1745,64493,149,203,
1634618536412,1782,64486,141,208,
1634618536418,1694,64482,152,215,
1634618536425,1724,64492,167,220,
1634618536431,1724,64491,190,227,
1634618536438,1878,64475,212,235,
1634618536445,1902,64425,219,254,
1634618536454,1988,64384,205,276,
1634618536463,2006,64362,210,318,
1634618536472,1955,64214,350,526,
1634618536481,2187,64163,262,702,
1634618536490,2130,64232,145,588,
1634618536490,2136,64297,52,587,
1634618536490,2069,64384,3,515,
1634618536490,2161,64462,65510,458,
1634618536490,2248,64621,65452,235,
1634618536490,2029,65116,65468,64850,
1634618536505,2076,64757,79,65327,
1634618536537,2060,64476,65443,428,
1634618536553,2014,64476,65443,428,
1634618536569,2018,64490,61,258,
1634618536572,2240,64403,34,336,
1634618536575,2230,64373,65512,453,
1634618536578,2225,64347,65519,421,
1634618536581,2079,64315,19,389,
1634618536584,2112,64280,43,373,
1634618536584,2230,64250,39,347,
1634618536584,2115,64236,13,330,
1634618536584,2267,64236,13,330,
1634618536584,2192,64227,65486,346,
1634618536584,2162,64219,65474,367,
1634618536584,2120,64214,65487,391,
1634618536584,19,64206,65497,422,
1634618536584,170,64195,65491,460,
1634618536584,111,64187,65482,487,
1634618536584,217,64170,65480,520,
1634618536587,86,64162,65491,553,
1634618536590,182,64162,65491,553,
1634618536593,167,64187,65508,571,
1634618536596,144,64216,65508,561,
1634618536599,136,64245,65499,545,
1634618536599,124,64275,65513,493,
1634618536599,90,64301,34,486,
1634618536599,110,64303,74,488,
1634618536599,124,64321,70,508,
1634618536599,133,64354,45,533,
1634618536605,121,64354,45,533,
1634618536612,122,64354,45,533,
1634618536619,177,64401,31,486,
1634618536626,115,64394,65510,506,
1634618536633,143,64408,65502,485,
1634618536633,101,64402,65507,501,
1634618536633,167,64383,65521,540,
1634618536634,177,64375,65523,572,
1634618536634,217,64385,65483,607,
1634618536635,200,64405,65416,674,
1634618536645,210,64405,65416,674,
1634618536656,329,64405,65416,674,
1634618536666,160,64445,65348,735,
1634618536677,140,64603,65503,111,
1634618536688,337,64363,397,38,
1634618536688,178,64408,25,548,
1634618536688,318,64464,65525,668,
1634618536688,146,64415,65484,794,
1634618536688,269,64467,65484,830,
1634618536688,176,64467,65484,830,
1634618536694,294,64467,65484,830,
1634618536701,218,64586,65431,892,
1634618536708,317,64582,65444,870,
1634618536715,190,64555,65468,843,
1634618536722,262,64525,65517,814,
1634618536722,344,64525,65517,814,
1634618536722,160,64525,65517,814,
1634618536722,203,64525,65517,814,
1634618536722,276,64525,65517,814,
1634618536722,335,64525,65517,814,
1634618536728,328,64525,65517,814,
1634618536734,384,64525,65517,814,
1634618536741,409,64525,65517,814,
1634618536747,171,64525,65517,814,
1634618536754,415,64525,65517,814,
1634618536760,204,64525,65517,814,
1634618536767,239,64525,65517,814,
1634618536773,198,64525,65517,814,
1634618536780,218,64525,65517,814,
1634618536787,241,64525,65517,814,
1634618536787,260,64525,65517,814,
1634618536787,291,64525,65517,814,
1634618536787,274,64525,65517,814,
1634618536787,259,64525,65517,814,
1634618536787,248,64525,65517,814,
1634618536793,277,64525,65517,814,
1634618536800,251,64525,65517,814,
1634618536806,259,64525,65517,814,
1634618536813,249,64525,65517,814,
1634618536820,241,64525,65517,814,
1634618536820,215,64525,65517,814,
1634618536820,215,64525,65517,814,
1634618536821,213,64525,65517,814,
1634618536821,190,64525,65517,814,
1634618536822,173,64525,65517,814,
1634618536829,177,64525,65517,814,
1634618536836,404,64525,65517,814,
1634618536843,396,64525,65517,814,
1634618536850,372,64525,65517,814,
1634618536858,340,64525,65517,814,
1634618536858,348,64525,65517,814,
1634618536858,356,64525,65517,814,
1634618536859,338,64525,65517,814,
1634618536859,331,64525,65517,814,
1634618536860,331,64525,65517,814,
1634618536867,334,64525,65517,814,
1634618536874,295,64525,65517,814,
1634618536881,323,64525,65517,814,
1634618536888,313,64525,65517,814,
1634618536895,300,64525,65517,814,
1634618536902,308,64525,65517,814,
1634618536910,303,64525,65517,814,
1634618536917,295,64525,65517,814,
1634618536925,302,64525,65517,814,
1634618536933,292,64525,65517,814,
1634618536933,281,64525,65517,814,
1634618536933,290,64525,65517,814,
1634618536934,241,64525,65517,814,
1634618536934,249,64525,65517,814,
1634618536935,251,64525,65517,814,
1634618536935,255,64525,65517,814,
1634618536935,263,64525,65517,814,
1634618536936,220,64525,65517,814,
1634618536936,209,64525,65517,814,
1634618536937,192,64525,65517,814,
1634618536943,201,64766,405,492,
1634618536950,402,64766,405,492,
1634618536957,169,64766,405,492,
1634618536964,173,64766,405,492,
1634618536971,399,64766,405,492,
1634618536971,398,64766,405,492,
1634618536971,394,64766,405,492,
1634618536971,392,64766,405,492,
1634618536971,376,64766,405,492,
1634618536972,358,64766,405,492,
1634618536989,395,64766,405,492,
1634618537006,392,64766,405,492,
1634618537023,384,64766,405,492,
1634618537040,174,64766,405,492,
1634618537057,381,64766,405,492,
1634618537060,401,64766,405,492,
1634618537063,387,64766,405,492,
1634618537066,199,64766,405,492,
1634618537069,198,64766,405,492,
1634618537072,193,64248,885,175,
1634618537072,243,64248,885,175,
1634618537072,236,64248,885,175,
1634618537072,247,64248,885,175,
1634618537072,283,64248,885,175,
1634618537072,287,64248,885,175,
1634618537077,294,64248,885,175,
1634618537082,313,64248,885,175,
1634618537087,346,64248,885,175,
1634618537092,310,64876,480,313,
1634618537097,351,64876,480,313,
1634618537097,363,64876,480,313,
1634618537097,361,64876,480,313,
1634618537097,367,64876,480,313,
1634618537097,362,64876,480,313,
1634618537097,377,64876,480,313,
1634618537101,398,64876,480,313,
1634618537106,391,64876,480,313,
1634618537110,402,64876,480,313,
1634618537115,194,65008,432,528,
1634618537120,218,65008,432,528,
1634618537120,223,65008,432,528,
1634618537120,220,65008,432,528,
1634618537121,200,65008,432,528,
1634618537121,245,65008,432,528,
1634618537122,232,65008,432,528,
1634618537129,218,65008,432,528,
1634618537136,188,65008,432,528,
1634618537143,198,65008,432,528,
1634618537150,205,65008,432,528,
1634618537158,212,65008,432,528,
1634618537158,209,65008,432,528,
1634618537158,211,65008,432,528,
1634618537159,203,65008,432,528,
1634618537159,225,65008,432,528,
1634618537160,198,65008,432,528,
1634618537169,191,65008,432,528,
1634618537178,198,64578,447,353,
1634618537188,199,64573,446,347,
1634618537197,201,64553,457,344,
1634618537207,203,64522,467,327,
1634618537213,201,64495,471,314,
1634618537219,231,64473,474,298,
1634618537225,225,64462,468,286,
1634618537231,230,64467,461,284,
1634618537237,226,64484,459,291,
1634618537237,244,64510,457,295,
1634618537237,282,64553,445,296,
1634618537237,274,64581,445,296,
1634618537237,287,64616,444,290,
1634618537237,300,64648,436,281,
1634618537237,307,64673,428,274,
1634618537237,306,64705,426,268,
1634618537237,338,64722,422,269,
1634618537237,338,64746,413,277,
1634618537237,352,64770,406,284,
1634618537243,317,64795,398,296,
1634618537250,350,64804,393,303,
1634618537257,346,64805,392,309,
1634618537264,358,64801,391,324,
1634618537271,346,64780,405,336,
1634618537271,379,64755,419,338,
1634618537271,394,64710,445,342,
1634618537271,391,64675,457,340,
1634618537271,420,64623,463,337,
1634618537272,418,64590,444,333,
1634618537288,418,64561,430,326,
1634618537304,200,64541,432,316,
1634618537320,223,64521,439,306,
1634618537336,219,64512,447,296,
1634618537352,220,64510,447,291,
1634618537352,238,64519,438,285,
1634618537352,244,64534,422,281,
1634618537352,238,64554,409,281,
1634618537352,256,64572,394,282,
1634618537352,276,64584,386,289,
1634618537352,259,64594,389,303,
1634618537352,252,64600,394,322,
1634618537352,269,64605,396,338,
1634618537352,284,64607,389,353,
1634618537352,252,64618,379,359,
1634618537352,294,64634,369,365,
1634618537352,276,64643,367,366,
1634618537352,274,64651,367,362,
1634618537352,249,64651,367,362,
1634618537352,278,64651,367,362,
1634618537358,274,64655,375,354,
1634618537364,294,64669,363,353,
1634618537370,243,64683,355,349,
1634618537376,269,64698,347,343,
1634618537383,286,64706,340,348,
1634618537390,283,64703,350,345,
1634618537398,271,64697,366,331,
1634618537405,275,64697,366,331,
1634618537413,268,64686,379,345,
1634618537421,273,64670,383,342,
1634618537421,257,64659,390,343,
1634618537421,248,64648,399,340,
1634618537422,276,64633,409,329,
1634618537422,275,64624,413,319,
1634618537423,260,64622,411,316,
1634618537433,259,64617,412,311,
1634618537443,261,64618,410,310,
1634618537453,236,64618,410,310,
1634618537463,225,64605,419,318,
1634618537473,244,64602,416,325,
1634618537473,213,64599,411,336,
1634618537473,201,64606,400,344,
1634618537473,211,64624,386,350,
1634618537473,217,64642,372,358,
1634618537474,189,64661,362,367,
1634618537482,188,64671,362,373,
1634618537491,189,64671,362,373,
1634618537500,181,64671,362,373,
1634618537509,421,64671,373,366,
1634618537518,184,64664,379,358,
1634618537527,191,64650,388,348,
1634618537536,193,64639,399,340,
1634618537545,421,64635,411,338,
1634618537554,422,64646,406,333,
1634618537564,222,64663,390,327,
1634618537567,188,64663,390,327,
1634618537570,184,64663,390,327,
1634618537574,189,64675,396,349,
1634618537577,188,64675,396,349,
1634618537581,419,64650,402,344,
1634618537584,179,64639,402,337,
1634618537587,188,64639,402,337,
1634618537590,418,64628,410,323,
1634618537593,190,64634,402,321,
1634618537596,178,64643,394,321,
1634618537596,413,64643,394,321,
1634618537596,191,64643,394,321,
1634618537596,415,64643,394,321,
1634618537596,400,64643,394,321,
1634618537596,395,64643,394,321,
1634618537598,400,64643,394,321,
1634618537601,402,64643,394,321,
1634618537603,407,64643,394,321,
1634618537606,400,64643,394,321,
1634618537609,355,64643,394,321,
1634618537609,348,64643,394,321,
1634618537609,364,64643,394,321,
1634618537609,359,64643,394,321,
1634618537609,372,64643,394,321,
1634618537610,387,64643,394,321,
1634618537613,368,64643,394,321,
1634618537616,385,64643,394,321,
1634618537620,368,64643,394,321,
1634618537623,371,64643,394,321,
1634618537627,403,64643,394,321,
1634618537633,381,64643,394,321,
1634618537639,373,64643,394,321,
1634618537645,393,64643,394,321,
1634618537651,376,64643,394,321,
1634618537658,386,64643,394,321,
1634618537664,410,64643,394,321,
1634618537670,374,64643,394,321,
1634618537676,401,64643,394,321,
1634618537682,413,64643,394,321,
1634618537689,396,64643,394,321,
1634618537689,396,64643,394,321,
1634618537689,409,64643,394,321,
1634618537689,379,64643,394,321,
1634618537689,398,64643,394,321,
1634618537690,183,64643,394,321,
1634618537696,189,64643,394,321,
1634618537702,190,64643,394,321,
1634618537709,417,64643,394,321,
1634618537715,193,64643,394,321,
1634618537722,418,64643,394,321,
1634618537722,179,64643,394,321,
1634618537722,412,64643,394,321,
1634618537722,198,64643,394,321,
1634618537722,422,64643,394,321,
1634618537722,191,64643,394,321,
1634618537729,206,64643,394,321,
1634618537736,189,64643,394,321,
1634618537743,205,64643,394,321,
1634618537750,219,64643,394,321,
1634618537758,417,64643,394,321,
1634618537758,191,64643,394,321,
1634618537758,423,64643,394,321,
1634618537759,214,64643,394,321,
1634618537759,200,64643,394,321,
1634618537760,189,64643,394,321,
1634618537767,214,64643,394,321,
1634618537774,195,64643,394,321,
1634618537781,201,64643,394,321,
1634618537788,203,64643,394,321,
1634618537796,226,64643,394,321,
1634618537796,219,64643,394,321,
1634618537796,229,64643,394,321,
1634618537796,217,64643,394,321,
1634618537796,244,64643,394,321,
1634618537797,242,64643,394,321,
1634618537804,235,64643,394,321,
1634618537811,244,64643,394,321,
1634618537818,205,64643,394,321,
1634618537825,230,64643,394,321,
1634618537833,242,64643,394,321,
1634618537833,255,64643,394,321,
1634618537833,243,64643,394,321,
1634618537834,257,64643,394,321,
1634618537834,223,64643,394,321,
1634618537835,241,64643,394,321,
1634618537845,268,64643,394,321,
1634618537855,274,64643,394,321,
1634618537865,274,64643,394,321,
1634618537875,268,64643,394,321,
1634618537886,267,64643,394,321,
1634618537886,265,64643,394,321,
1634618537886,275,64643,394,321,
1634618537886,274,64643,394,321,
1634618537886,280,64643,394,321,
1634618537886,318,64634,344,322,
1634618537892,319,64634,344,322,
1634618537899,328,64634,344,322,
1634618537905,319,64634,344,322,
1634618537912,335,64634,344,322,
1634618537919,289,64634,344,322,
1634618537919,311,64634,344,322,
1634618537919,325,64634,344,322,
1634618537919,310,64634,344,322,
1634618537919,318,64634,344,322,
1634618537919,365,64589,322,342,
1634618537925,346,64589,322,342,
1634618537931,375,64589,322,342,
1634618537938,357,64589,322,342,
1634618537944,363,64589,322,342,
1634618537951,333,64589,322,342,
1634618537957,369,64589,322,342,
1634618537964,353,64589,322,342,
1634618537971,352,64589,322,342,
1634618537978,351,64604,312,327,
1634618537985,363,64604,312,327,
1634618537985,372,64604,312,327,
1634618537985,392,64604,312,327,
1634618537985,361,64604,312,327,
1634618537985,393,64604,312,327,
1634618537985,343,64604,312,327,
1634618538004,385,64604,312,327,
1634618538023,393,64604,312,327,
1634618538043,395,64605,301,316,
1634618538062,384,64605,316,311,
1634618538082,398,64593,320,307,
1634618538085,392,64585,318,306,
1634618538088,413,64575,314,305,
1634618538091,419,64568,316,304,
1634618538094,410,64566,315,308,
1634618538097,413,64568,314,315,
1634618538097,392,64565,314,321,
1634618538097,397,64566,309,326,
1634618538097,408,64569,307,331,
1634618538097,425,64567,311,331,
1634618538097,393,64568,312,333,
1634618538097,429,64569,314,338,
1634618538097,405,64573,313,337,
1634618538097,430,64582,308,335,
1634618538097,413,64584,308,331,
1634618538097,412,64586,310,330,
1634618538097,404,64582,319,323,
1634618538097,189,64582,319,323,
1634618538097,414,64583,317,306,
1634618538097,422,64583,321,301,
1634618538097,422,64584,319,297,
1634618538097,421,64589,314,294,
1634618538097,189,64597,310,290,
1634618538097,414,64596,306,287,
1634618538097,201,64599,306,289,
1634618538097,203,64593,311,291,
1634618538104,418,64587,313,293,
1634618538111,225,64585,307,293,
1634618538118,425,64582,305,297,
1634618538125,212,64578,303,299,
1634618538133,209,64577,306,301,
1634618538133,202,64572,306,303,
1634618538133,224,64569,306,304,
1634618538134,220,64567,305,309,
1634618538134,233,64570,306,311,
1634618538135,247,64578,304,316,
1634618538142,229,64584,301,312,
1634618538149,248,64584,300,311,
1634618538156,239,64584,310,306,
1634618538163,234,64588,317,312,
1634618538171,274,64588,319,311,
1634618538171,222,64603,315,325,
1634618538171,246,64627,312,327,
1634618538171,247,64620,305,323,
1634618538171,251,64616,306,327,
1634618538172,294,64615,317,320,
1634618538179,261,64613,317,317,
1634618538186,286,64608,317,310,
1634618538193,246,64599,322,309,
1634618538200,285,64595,329,311,
1634618538208,275,64589,329,311,
1634618538208,243,64593,322,310,
1634618538208,296,64594,319,312,
1634618538209,286,64594,321,316,
1634618538209,286,64595,320,319,
1634618538210,259,64595,320,319,
1634618538217,289,64594,311,317,
1634618538224,300,64595,303,310,
1634618538231,288,64594,300,304,
1634618538238,291,64591,299,303,
1634618538246,294,64589,302,303,
1634618538253,301,64584,300,305,
1634618538260,313,64583,303,310,
1634618538268,287,64582,306,312,
1634618538275,296,64585,303,316,
1634618538283,290,64587,303,323,
1634618538283,313,64588,307,323,
1634618538283,299,64590,303,320,
1634618538284,295,64594,295,316,
1634618538284,294,64596,296,314,
1634618538285,292,64592,302,316,
1634618538292,296,64588,307,315,
1634618538299,304,64582,309,310,
1634618538306,330,64582,309,310,
1634618538313,326,64582,309,310,
1634618538321,330,64588,303,300,
1634618538328,310,64588,301,302,
1634618538335,321,64587,301,305,
1634618538343,318,64583,303,307,
1634618538350,303,64577,303,311,
1634618538358,313,64570,306,318,
1634618538358,297,64567,307,321,
1634618538358,298,64567,307,321,
1634618538359,310,64567,307,321,
1634618538359,327,64576,302,314,
1634618538360,318,64583,302,312,
1634618538360,337,64583,302,312,
1634618538360,331,64588,304,309,
1634618538360,332,64588,310,305,
1634618538360,305,64590,309,302,
1634618538361,348,64597,306,302,
1634618538368,338,64602,307,301,
1634618538375,312,64602,307,301,
1634618538382,353,64602,307,301,
1634618538389,333,64602,307,301,
1634618538396,347,64602,307,301,
1634618538399,359,64602,307,301,
1634618538403,374,64602,307,301,
1634618538407,350,64602,307,301,
1634618538411,352,64602,307,301,
1634618538415,327,64602,307,301,
1634618538418,344,64602,307,301,
1634618538422,353,64602,307,301,
1634618538425,337,64602,307,301,
1634618538429,361,64602,307,301,
1634618538433,365,64602,307,301,
1634618538436,356,64602,307,301,
1634618538440,357,64602,307,301,
1634618538443,368,64602,307,301,
1634618538447,350,64602,307,301,
1634618538451,377,64602,307,301,
1634618538458,353,64602,307,301,
1634618538465,360,64602,307,301,
1634618538472,377,64602,307,301,
1634618538479,387,64602,307,301,
1634618538487,359,64602,307,301,
1634618538487,367,64602,307,301,
1634618538487,376,64602,307,301,
1634618538487,383,64602,307,301,
1634618538487,359,64602,307,301,
1634618538487,384,64602,307,301,
1634618538502,382,64602,307,301,
1634618538518,376,64602,307,301,
1634618538533,360,64602,307,301,
1634618538549,385,64602,307,301,
1634618538565,384,64602,307,301,
1634618538565,408,64602,307,301,
1634618538565,387,64602,307,301,
1634618538565,402,64602,307,301,
1634618538565,409,64602,307,301,
1634618538565,405,64602,307,301,
1634618538565,400,64602,307,301,
1634618538565,376,64602,307,301,
1634618538565,383,64602,307,301,
1634618538565,369,64602,307,301,
1634618538565,381,64602,307,301,
1634618538572,393,64602,307,301,
1634618538580,417,64602,307,301,
1634618538588,397,64602,307,301,
1634618538596,391,64602,307,301,
1634618538604,402,64602,307,301,
1634618538609,393,64602,307,301,
1634618538614,404,64602,307,301,
1634618538619,395,64602,307,301,
1634618538624,393,64602,307,301,
1634618538629,411,64602,307,301,
1634618538632,407,64602,307,301,
1634618538635,375,64602,307,301,
1634618538639,396,64602,307,301,
1634618538642,419,64602,307,301,
1634618538646,429,64602,307,301,
1634618538646,425,64602,307,301,
1634618538646,379,64602,307,301,
1634618538646,412,64602,307,301,
1634618538646,415,64602,307,301,
1634618538646,397,64602,307,301,
1634618538648,431,64602,307,301,
1634618538650,424,64602,307,301,
1634618538653,434,64602,307,301,
1634618538655,433,64602,307,301,
1634618538658,197,64602,307,301,
1634618538658,200,64602,307,301,
1634618538658,431,64602,307,301,
1634618538659,215,64602,307,301,
1634618538659,192,64602,307,301,
1634618538660,429,64602,307,301,
1634618538667,194,64602,307,301,
1634618538674,198,64602,307,301,
1634618538681,193,64602,307,301,
1634618538688,227,64602,307,301,
1634618538696,247,64602,307,301,
1634618538696,208,64602,307,301,
1634618538696,208,64602,307,301,
1634618538696,203,64602,307,301,
1634618538696,219,64602,307,301,
1634618538697,204,64602,307,301,
1634618538704,201,64602,307,301,
1634618538711,228,64602,307,301,
1634618538718,225,64602,307,301,
1634618538725,437,64602,307,301,
1634618538733,242,64602,307,301,
1634618538740,221,64602,307,301,
1634618538748,236,64602,307,301,
1634618538755,201,64602,307,301,
1634618538763,241,64602,307,301,
1634618538771,204,64602,307,301,
1634618538771,219,64600,309,303,
1634618538771,207,64600,309,303,
1634618538772,226,64600,309,303,
1634618538772,219,64600,309,303,
1634618538773,253,64600,309,303,
1634618538773,238,64600,309,303,
1634618538773,234,64600,309,303,
1634618538773,235,64600,309,303,
1634618538773,259,64600,309,303,
1634618538774,207,64581,300,309,
1634618538780,232,64581,303,308,
1634618538787,242,64581,303,308,
1634618538794,274,64581,303,308,
1634618538801,242,64581,303,308,
1634618538808,240,64581,303,308,
1634618538815,276,64581,303,308,
1634618538823,266,64581,303,308,
1634618538830,267,64581,303,308,
1634618538838,233,64581,303,308,
1634618538846,259,64581,303,308,
1634618538846,253,64572,305,312,
1634618538846,236,64576,306,311,
1634618538847,240,64579,305,311,
1634618538847,249,64586,303,310,
1634618538848,269,64591,304,310,
1634618538855,270,64593,306,312,
1634618538862,280,64593,307,310,
1634618538869,281,64596,308,310,
1634618538876,283,64595,308,308,
1634618538883,261,64596,308,308,
1634618538883,256,64596,310,308,
1634618538883,283,64597,310,311,
1634618538884,277,64601,311,312,
1634618538884,291,64602,312,311,
1634618538885,274,64602,308,311,
1634618538892,291,64603,308,313,
1634618538899,306,64601,309,312,
1634618538906,291,64593,310,308,
1634618538913,274,64590,310,301,
1634618538921,295,64587,309,300,
1634618538924,305,64583,309,295,
1634618538928,272,64579,309,295,
1634618538932,266,64580,310,299,
1634618538936,304,64578,311,300,
1634618538940,298,64573,310,306,
1634618538947,323,64573,302,313,
1634618538954,315,64570,296,318,
1634618538961,296,64572,294,318,
1634618538968,326,64572,294,318,
1634618538975,323,64571,294,313,
1634618538975,311,64573,294,316,
1634618538975,300,64577,296,316,
1634618538975,301,64580,297,316,
1634618538975,331,64584,299,313,
1634618538976,312,64592,297,306,
1634618538985,326,64596,295,305,
1634618538994,305,64599,293,306,
1634618539003,334,64602,293,308,
1634618539012,312,64604,296,309,
1634618539022,344,64599,296,309,
1634618539022,311,64598,303,305,
1634618539023,323,64595,307,304,
1634618539024,317,64596,310,304,
1634618539025,342,64596,311,299,
1634618539026,328,64594,310,298,
1634618539027,324,64594,310,298,
1634618539029,303,64588,316,297,
1634618539031,340,64584,317,300,
1634618539033,302,64583,319,302,
1634618539035,332,64581,314,301,
1634618539035,315,64583,309,301,
1634618539035,307,64582,301,305,
1634618539035,321,64580,303,310,
1634618539035,335,64575,308,314,
1634618539036,333,64572,310,319,
1634618539046,322,64572,310,319,
1634618539057,322,64581,300,317,
1634618539067,329,64587,297,315,
1634618539078,351,64590,298,315,
1634618539089,327,64592,300,315,
1634618539093,334,64589,305,316,
1634618539097,337,64590,304,314,
1634618539102,366,64592,304,312,
1634618539106,339,64595,306,310,
1634618539111,350,64595,306,310,
1634618539111,370,64600,302,305,
1634618539111,338,64601,304,304,
1634618539111,363,64601,310,303,
1634618539111,375,64603,311,300,
1634618539111,341,64602,307,302,
1634618539117,358,64601,303,304,
1634618539124,365,64600,304,305,
1634618539131,350,64597,305,309,
1634618539138,349,64597,305,309,
1634618539145,341,64597,305,309,
1634618539145,354,64586,302,313,
1634618539145,386,64583,299,316,
1634618539146,380,64583,299,316,
1634618539146,341,64579,300,324,
1634618539147,396,64576,300,325,
1634618539154,367,64576,295,327,
1634618539161,360,64575,295,325,
1634618539168,358,64575,298,325,
1634618539175,351,64575,298,325,
1634618539183,348,64581,301,320,
1634618539183,393,64579,307,315,
1634618539183,357,64579,313,310,
1634618539184,391,64579,313,310,
1634618539184,405,64577,316,302,
1634618539185,364,64581,316,304,
1634618539192,405,64582,312,303,
1634618539199,378,64587,307,304,
1634618539206,395,64587,307,304,
1634618539213,370,64587,307,304,
1634618539221,384,64587,307,304,
1634618539221,405,64587,307,304,
1634618539221,419,64587,307,304,
1634618539222,428,64587,307,304,
1634618539222,393,64587,307,304,
1634618539223,388,64587,307,304,
1634618539230,413,64587,307,304,
1634618539237,405,64587,307,304,
1634618539244,402,64587,307,304,
1634618539251,425,64587,307,304,
1634618539258,397,64587,307,304,
1634618539258,414,64587,307,304,
1634618539258,424,64587,307,304,
1634618539259,417,64587,307,304,
1634618539259,400,64587,307,304,
1634618539260,418,64587,307,304,
1634618539267,434,64587,307,304,
1634618539274,436,64587,307,304,
1634618539281,420,64587,307,304,
1634618539288,427,64587,307,304,
1634618539296,202,64587,307,304,
1634618539296,432,64587,307,304,
1634618539296,201,64587,307,304,
1634618539297,206,64587,307,304,
1634618539297,435,64587,307,304,
1634618539298,441,64587,307,304,
1634618539305,424,64587,307,304,
1634618539312,206,64587,307,304,
1634618539319,213,64587,307,304,
1634618539326,433,64587,307,304,
1634618539333,223,64587,307,304,
1634618539333,211,64587,307,304,
1634618539333,218,64587,307,304,
1634618539334,446,64587,307,304,
1634618539334,215,64587,307,304,
1634618539335,204,64587,307,304,
1634618539342,228,64587,307,304,
1634618539349,204,64587,307,304,
1634618539356,216,64587,307,304,
1634618539363,226,64587,307,304,
1634618539371,229,64587,307,304,
1634618539388,210,64587,307,304,
1634618539406,220,64587,307,304,
1634618539424,211,64587,307,304,
1634618539442,202,64587,307,304,
1634618539460,210,64587,307,304,
1634618539460,261,64587,307,304,
1634618539460,245,64587,307,304,
1634618539460,249,64587,307,304,
1634618539460,221,64587,307,304,
1634618539460,211,64587,307,304,
1634618539460,208,64587,307,304,
1634618539460,214,64587,307,304,
1634618539460,218,64587,307,304,
1634618539460,223,64587,307,304,
1634618539460,224,64587,307,304,
1634618539460,245,64587,307,304,
1634618539460,253,64587,307,304,
1634618539460,257,64587,307,304,
1634618539460,212,64587,307,304,
1634618539460,237,64587,307,304,
1634618539460,237,64587,307,304,
1634618539460,238,64587,307,304,
1634618539460,244,64587,307,304,
1634618539460,247,64587,307,304,
1634618539460,250,64587,307,304,
1634618539466,230,64587,307,304,
1634618539472,257,64587,307,304,
1634618539478,261,64587,307,304,
1634618539484,241,64587,307,304,
1634618539491,241,64587,307,304,
1634618539507,203,64587,307,304,
1634618539524,249,64587,307,304,
1634618539540,228,64587,307,304,
1634618539557,242,64587,307,304,
1634618539574,239,64587,307,304,
1634618539574,241,64587,307,304,
1634618539574,233,64587,307,304,
1634618539574,276,64587,307,304,
1634618539574,236,64587,307,304,
1634618539574,234,64587,307,304,
1634618539574,243,64587,307,304,
1634618539574,253,64587,307,304,
1634618539574,256,64590,300,308,
1634618539574,247,64590,300,308,
1634618539574,252,64590,300,308,
1634618539574,271,64590,300,308,
1634618539574,256,64590,300,308,
1634618539574,247,64590,300,308,
1634618539574,253,64590,300,308,
1634618539574,262,64590,300,308,
1634618539581,284,64590,300,308,
1634618539588,271,64594,307,314,
1634618539596,282,64594,307,314,
1634618539603,276,64594,307,314,
1634618539611,288,64594,307,314,
1634618539614,270,64594,307,314,
1634618539617,275,64594,307,314,
1634618539620,284,64594,307,314,
1634618539623,294,64594,307,314,
1634618539627,271,64594,307,314,
1634618539628,278,64591,304,300,
1634618539629,266,64591,304,300,
1634618539630,286,64591,304,300,
1634618539631,269,64591,304,300,
1634618539633,277,64591,304,300,
1634618539633,267,64591,304,300,
1634618539633,297,64591,304,300,
1634618539634,302,64591,304,300,
1634618539634,314,64591,304,300,
1634618539635,314,64568,301,306,
1634618539645,300,64572,303,310,
1634618539655,306,64572,303,310,
1634618539665,301,64577,307,310,
1634618539675,323,64582,303,309,
1634618539686,308,64591,296,309,
1634618539686,307,64598,296,311,
1634618539686,307,64604,300,311,
1634618539686,311,64605,302,314,
1634618539686,315,64606,303,316,
1634618539686,325,64605,301,315,
1634618539692,327,64604,301,316,
1634618539698,307,64601,303,316,
1634618539705,337,64597,306,316,
1634618539711,297,64591,307,313,
1634618539718,320,64587,307,311,
1634618539724,307,64582,309,309,
1634618539730,310,64574,311,302,
1634618539736,309,64572,312,299,
1634618539742,332,64570,310,298,
1634618539748,305,64570,310,298,
1634618539748,325,64571,311,298,
1634618539748,286,64573,310,303,
1634618539748,319,64570,308,301,
1634618539748,299,64573,304,306,
1634618539749,318,64576,301,310,
1634618539755,319,64581,296,313,
1634618539762,323,64587,297,317,
1634618539769,302,64586,299,314,
1634618539776,345,64592,295,314,
1634618539783,317,64597,292,311,
1634618539783,333,64598,295,313,
1634618539783,323,64595,298,314,
1634618539784,325,64590,296,315,
1634618539784,345,64586,296,310,
1634618539785,338,64582,299,310,
1634618539792,359,64579,301,308,
1634618539799,328,64582,299,305,
1634618539806,351,64582,299,305,
1634618539813,334,64583,300,298,
1634618539820,330,64586,303,297,
1634618539820,348,64587,303,296,
1634618539820,337,64589,305,300,
1634618539821,331,64590,305,299,
1634618539821,338,64593,304,302,
1634618539822,324,64594,305,304,
1634618539832,333,64594,304,305,
1634618539843,347,64595,303,309,
1634618539853,327,64595,303,309,
1634618539864,368,64594,303,312,
1634618539875,333,64592,303,312,
1634618539875,334,64589,308,315,
1634618539875,376,64584,305,315,
1634618539875,321,64582,303,316,
1634618539875,346,64581,301,315,
1634618539875,327,64581,302,310,
1634618539881,365,64579,303,310,
1634618539887,360,64579,303,310,
1634618539893,349,64581,303,307,
1634618539899,348,64584,303,307,
1634618539906,378,64585,300,306,
1634618539906,359,64588,297,303,
1634618539906,393,64592,299,303,
1634618539906,330,64591,299,303,
1634618539906,383,64594,299,302,
1634618539906,362,64596,301,302,
1634618539911,345,64596,301,302,
1634618539917,365,64590,307,302,
1634618539923,367,64592,307,302,
1634618539929,343,64594,303,303,
1634618539935,386,64595,302,304,
1634618539935,355,64594,303,304,
1634618539935,370,64588,306,300,
1634618539935,366,64586,303,302,
1634618539935,391,64587,298,305,
1634618539935,349,64587,298,305,
1634618539942,369,64587,298,305,
1634618539949,369,64579,293,311,
1634618539956,348,64573,298,306,
1634618539963,382,64569,302,304,
1634618539971,378,64569,302,304,
1634618539971,390,64566,303,306,
1634618539971,383,64570,303,305,
1634618539971,366,64571,300,309,
1634618539971,376,64572,301,309,
1634618539972,375,64572,301,309,
1634618539990,390,64577,307,312,
1634618540009,381,64578,309,313,
1634618540028,394,64585,306,315,
1634618540047,384,64591,305,313,
1634618540066,399,64591,305,313,
1634618540069,407,64598,303,315,
1634618540073,384,64602,307,314,
1634618540076,365,64600,311,314,
1634618540080,400,64600,311,314,
1634618540084,398,64603,306,309,
1634618540084,366,64603,306,309,
1634618540084,401,64603,306,309,
1634618540084,398,64603,306,309,
1634618540084,397,64603,306,309,
1634618540084,406,64603,306,309,
1634618540087,411,64603,306,309,
1634618540091,399,64603,306,309,
1634618540095,381,64590,305,291,
1634618540099,389,64590,305,291,
1634618540103,394,64590,305,291,
1634618540103,394,64590,305,291,
1634618540103,410,64590,305,291,
1634618540103,399,64590,305,291,
1634618540103,396,64590,305,291,
1634618540103,396,64590,305,291,
1634618540106,405,64590,305,291,
1634618540110,424,64590,305,291,
1634618540113,416,64590,305,291,
1634618540117,424,64590,305,291,
1634618540121,438,64590,305,291,
1634618540121,422,64590,305,291,
1634618540121,405,64590,305,291,
1634618540122,407,64590,305,291,
1634618540122,379,64590,305,291,
1634618540123,423,64590,305,291,
1634618540133,427,64590,305,291,
1634618540143,429,64590,305,291,
1634618540153,432,64590,305,291,
1634618540163,408,64590,305,291,
1634618540174,426,64590,305,291,
1634618540174,416,64590,305,291,
1634618540174,406,64590,305,291,
1634618540174,414,64590,305,291,
1634618540174,427,64590,305,291,
1634618540174,435,64590,305,291,
1634618540180,425,64590,305,291,
1634618540186,437,64590,305,291,
1634618540193,428,64590,305,291,
1634618540199,442,64590,305,291,
1634618540206,209,64590,305,291,
1634618540206,440,64590,305,291,
1634618540206,446,64590,305,291,
1634618540206,435,64590,305,291,
1634618540206,424,64590,305,291,
1634618540206,453,64590,305,291,
1634618540212,229,64566,298,305,
1634618540218,213,64566,298,305,
1634618540225,226,64566,298,305,
1634618540231,437,64566,298,305,
1634618540238,440,64566,298,305,
1634618540238,209,64566,298,305,
1634618540238,441,64566,298,305,
1634618540238,221,64566,298,305,
1634618540238,432,64566,298,305,
1634618540238,217,64566,298,305,
1634618540252,448,64566,298,305,
1634618540266,210,64566,298,305,
1634618540280,452,64566,298,305,
1634618540294,236,64566,298,305,
1634618540308,219,64566,298,305,
1634618540311,455,64566,298,305,
1634618540315,453,64566,298,305,
1634618540319,213,64566,298,305,
1634618540323,445,64566,298,305,
1634618540327,445,64566,298,305,
1634618540327,208,64566,298,305,
1634618540327,234,64566,298,305,
1634618540327,232,64566,298,305,
1634618540327,243,64566,298,305,
1634618540327,449,64566,298,305,
1634618540327,245,64566,298,305,
1634618540327,210,64566,298,305,
1634618540327,451,64566,298,305,
1634618540327,211,64566,298,305,
1634618540327,218,64573,294,312,
1634618540333,219,64573,294,312,
1634618540339,239,64573,294,312,
1634618540345,218,64573,294,312,
1634618540351,239,64573,294,312,
1634618540357,221,64573,294,312,
1634618540363,218,64573,294,312,
1634618540370,230,64573,294,312,
1634618540376,210,64573,294,312,
1634618540383,220,64573,294,312,
1634618540390,230,64573,294,312,
1634618540390,241,64573,294,312,
1634618540390,225,64573,294,312,
1634618540390,239,64573,294,312,
1634618540390,226,64573,294,312,
1634618540390,265,64573,294,312,
1634618540397,254,64573,294,312,
1634618540405,224,64573,294,312,
1634618540412,238,64598,308,299,
1634618540420,211,64598,308,299,
1634618540428,231,64598,308,299,
1634618540428,237,64598,308,299,
1634618540428,243,64598,308,299,
1634618540428,237,64598,308,299,
1634618540428,258,64598,308,299,
1634618540428,246,64598,308,299,
1634618540434,247,64598,308,299,
1634618540440,226,64577,306,306,
1634618540446,227,64577,304,309,
1634618540452,217,64577,304,309,
1634618540458,251,64577,304,309,
1634618540458,233,64577,304,309,
1634618540458,249,64577,304,309,
1634618540459,238,64577,304,309,
1634618540459,234,64577,304,309,
1634618540460,258,64577,304,309,
1634618540475,251,64582,300,307,
1634618540490,258,64582,301,306,
1634618540505,237,64584,301,309,
1634618540520,237,64586,303,309,
1634618540536,259,64585,305,311,
1634618540547,238,64590,305,310,
1634618540559,274,64594,302,308,
1634618540570,244,64601,302,305,
1634618540582,251,64602,306,307,
1634618540594,288,64602,307,307,
1634618540594,240,64600,308,302,
1634618540594,255,64600,310,301,
1634618540595,267,64598,312,301,
1634618540595,270,64595,310,304,
1634618540596,271,64593,310,305,
1634618540596,262,64590,310,309,
1634618540596,273,64585,312,310,
1634618540596,270,64584,307,314,
1634618540596,261,64583,303,313,
1634618540600,277,64580,303,311,
1634618540604,263,64579,302,310,
1634618540608,267,64574,304,306,
1634618540612,287,64572,307,306,
1634618540616,275,64571,308,306,
1634618540620,255,64573,305,307,
1634618540624,291,64581,302,307,
1634618540628,263,64586,300,309,
1634618540632,287,64591,300,309,
1634618540636,290,64589,299,313,
1634618540636,292,64593,299,315,
1634618540636,235,64591,300,316,
1634618540636,303,64593,301,319,
1634618540636,273,64595,296,313,
1634618540636,285,64595,297,309,
1634618540639,261,64594,299,302,
1634618540643,286,64589,303,302,
1634618540647,299,64587,310,300,
1634618540651,267,64587,310,300,
1634618540655,295,64587,307,297,
1634618540655,271,64589,306,297,
1634618540655,293,64593,307,301,
1634618540655,261,64592,304,301,
1634618540655,280,64594,302,303,
1634618540655,292,64594,302,307,
1634618540660,289,64591,305,309,
1634618540666,261,64590,305,309,
1634618540671,262,64588,304,308,
1634618540677,281,64588,304,308,
1634618540683,282,64591,300,305,
1634618540683,278,64593,302,299,
1634618540683,291,64587,305,296,
1634618540684,271,64585,309,299,
1634618540684,248,64585,307,302,
1634618540685,276,64582,306,304,
1634618540695,268,64582,303,308,
1634618540706,247,64584,299,311,
1634618540716,285,64584,299,311,
1634618540727,291,64584,296,314,
1634618540738,265,64581,297,319,
1634618540738,300,64581,301,318,
1634618540738,295,64583,303,316,
1634618540738,284,64584,304,312,
1634618540738,256,64587,302,308,
1634618540738,262,64590,299,305,
1634618540744,299,64593,300,303,
1634618540750,274,64593,300,303,
1634618540756,274,64592,309,306,
1634618540762,287,64590,311,304,
1634618540768,288,64590,306,302,
1634618540768,286,64590,304,300,
1634618540768,289,64588,306,299,
1634618540768,292,64589,309,299,
1634618540768,286,64588,307,300,
1634618540768,304,64584,306,301,
1634618540774,296,64584,306,301,
1634618540780,303,64583,306,300,
1634618540786,282,64582,308,300,
1634618540792,294,64584,306,304,
1634618540798,299,64587,304,308,
1634618540798,291,64590,301,307,
1634618540798,292,64590,301,307,
1634618540798,282,64593,298,311,
1634618540798,283,64593,302,314,
1634618540798,319,64592,304,311,
1634618540805,312,64592,304,311,
1634618540812,284,64591,303,309,
1634618540819,297,64588,303,310,
1634618540826,303,64584,306,312,
1634618540833,304,64581,305,311,
1634618540833,277,64581,304,310,
1634618540833,289,64581,304,310,
1634618540834,313,64579,302,306,
1634618540834,311,64580,302,305,
1634618540835,312,64580,302,305,
1634618540842,300,64580,302,305,
1634618540849,320,64580,302,305,
1634618540856,293,64580,302,305,
1634618540863,311,64580,302,305,
1634618540871,316,64580,302,305,
1634618540874,304,64580,302,305,
1634618540878,311,64580,302,305,
1634618540882,301,64580,302,305,
1634618540886,284,64580,302,305,
1634618540890,343,64580,302,305,
1634618540896,316,64580,302,305,
1634618540902,306,64580,302,305,
1634618540908,322,64580,302,305,
1634618540914,315,64580,302,305,
1634618540920,336,64580,302,305,
1634618540925,336,64580,302,305,
1634618540931,327,64580,302,305,
1634618540937,331,64580,302,305,
1634618540943,345,64580,302,305,
1634618540949,330,64580,302,305,
1634618540949,341,64580,302,305,
1634618540949,343,64580,302,305,
1634618540949,309,64580,302,305,
1634618540949,321,64580,302,305,
1634618540949,334,64580,302,305,
1634618540955,328,64580,302,305,
1634618540962,316,64580,302,305,
1634618540969,340,64580,302,305,
1634618540976,333,64580,302,305,
1634618540983,334,64580,302,305,
1634618540983,303,64580,302,305,
1634618540983,355,64580,302,305,
1634618540984,329,64580,302,305,
1634618540984,330,64580,302,305,
1634618540985,340,64580,302,305,
1634618540992,318,64580,302,305,
1634618540999,318,64580,302,305,
1634618541007,328,64580,302,305,
1634618541014,326,64580,302,305,
1634618541022,324,64580,302,305,
1634618541022,335,64580,302,305,
1634618541022,347,64580,302,305,
1634618541022,335,64580,302,305,
1634618541022,357,64580,302,305,
1634618541023,341,64580,302,305,
1634618541038,336,64580,302,305,
1634618541054,350,64590,310,290,
1634618541070,357,64590,310,290,
1634618541086,371,64590,310,290,
1634618541102,352,64590,310,290,
1634618541106,356,64590,310,290,
1634618541110,341,64590,310,290,
1634618541114,360,64590,310,290,
1634618541118,372,64590,310,290,
1634618541123,325,64590,310,290,
1634618541126,364,64590,310,290,
1634618541130,384,64590,310,290,
1634618541134,354,64590,310,290,
1634618541138,358,64590,310,290,
1634618541142,354,64590,310,290,
1634618541142,352,64590,310,290,
1634618541142,374,64590,310,290,
1634618541142,340,64590,310,290,
1634618541142,365,64590,310,290,
1634618541142,358,64590,310,290,
1634618541142,332,64593,301,305,
1634618541142,355,64593,301,305,
1634618541142,389,64593,301,305,
1634618541142,373,64593,301,305,
1634618541142,368,64593,301,305,
1634618541144,343,64593,301,305,
1634618541146,382,64593,301,305,
1634618541149,376,64593,301,305,
1634618541151,371,64593,301,305,
1634618541154,370,64593,309,292,
1634618541158,374,64593,309,292,
1634618541162,388,64593,309,292,
1634618541166,386,64593,309,292,
1634618541170,380,64593,309,292,
1634618541175,392,64593,309,292,
1634618541185,408,64593,309,292,
1634618541195,378,64593,309,292,
1634618541205,382,64593,309,292,
1634618541215,376,64574,304,308,
1634618541226,375,64574,304,308,
1634618541226,370,64574,304,308,
1634618541226,373,64574,304,308,
1634618541226,349,64574,304,308,
1634618541226,407,64574,304,308,
1634618541226,399,64574,304,308,
1634618541231,392,64574,304,308,
1634618541237,388,64574,304,308,
1634618541242,363,64574,304,308,
1634618541248,385,64588,309,293,
1634618541254,383,64588,309,293,
1634618541259,389,64588,309,293,
1634618541265,416,64588,309,293,
1634618541271,398,64588,309,293,
1634618541277,406,64588,309,293,
1634618541283,393,64588,309,293,
1634618541283,405,64588,309,293,
1634618541283,411,64588,309,293,
1634618541284,423,64594,307,309,
1634618541284,389,64594,307,309,
1634618541285,386,64594,307,309,
1634618541285,398,64594,307,309,
1634618541285,388,64594,307,309,
1634618541286,427,64594,307,309,
1634618541286,389,64594,307,309,
1634618541287,400,64594,307,309,
1634618541296,398,64594,307,309,
1634618541306,435,64578,302,297,
1634618541316,425,64576,308,295,
1634618541326,429,64576,307,293,
1634618541336,403,64576,308,289,
1634618541336,426,64578,305,290,
1634618541336,423,64581,302,291,
1634618541336,433,64584,303,291,
1634618541336,403,64583,303,291,
1634618541336,419,64586,303,290,
1634618541341,422,64584,305,293,
1634618541346,444,64586,305,298,
1634618541351,435,64586,304,302,
1634618541356,408,64588,302,305,
1634618541361,436,64591,300,305,
1634618541361,407,64594,296,309,
1634618541361,409,64594,299,312,
1634618541361,417,64594,302,315,
1634618541361,417,64593,300,315,
1634618541361,426,64590,299,312,
1634618541367,418,64588,303,309,
1634618541374,435,64584,306,306,
1634618541381,459,64583,309,303,
1634618541388,406,64581,313,297,
1634618541395,449,64580,315,291,
1634618541395,402,64580,316,287,
1634618541395,423,64580,315,285,
1634618541396,430,64579,313,287,
1634618541396,405,64581,312,290,
1634618541397,443,64583,310,298,
1634618541407,420,64583,310,298,
1634618541417,436,64586,306,312,
1634618541427,432,64592,301,315,
1634618541437,443,64597,296,319,
1634618541447,461,64601,295,317,
1634618541447,451,64602,292,315,
1634618541447,420,64601,296,309,
1634618541447,411,64595,300,308,
1634618541447,446,64590,303,301,
1634618541447,446,64590,303,301,
1634618541452,429,64583,303,293,
1634618541458,458,64583,302,294,
1634618541464,450,64580,302,292,
1634618541470,434,64577,303,292,
1634618541476,449,64577,303,291,
1634618541497,439,64576,306,291,
1634618541518,420,64575,305,295,
1634618541539,442,64579,304,299,
1634618541560,412,64582,305,303,
1634618541581,427,64586,304,305,
1634618541581,437,64590,302,308,
1634618541582,435,64595,300,306,
1634618541583,438,64599,301,305,
1634618541584,433,64601,301,305,
1634618541585,452,64603,304,305,
1634618541588,420,64601,305,306,
1634618541591,431,64598,304,304,
1634618541595,414,64597,303,305,
1634618541598,431,64597,303,305,
1634618541602,435,64592,308,303,
1634618541602,220,64594,304,304,
1634618541602,459,64594,303,305,
1634618541602,439,64595,304,305,
1634618541602,416,64591,304,303,
1634618541602,454,64590,306,302,
1634618541602,453,64588,303,299,
1634618541602,438,64587,303,299,
1634618541602,443,64587,303,299,
1634618541602,436,64583,306,295,
1634618541602,427,64580,306,295,
1634618541602,427,64582,304,296,
1634618541602,415,64579,306,297,
1634618541602,438,64584,303,296,
1634618541602,415,64581,304,297,
1634618541602,422,64582,301,300,
1634618541605,449,64582,300,305,
1634618541609,434,64583,301,310,
1634618541613,460,64583,301,310,
1634618541617,431,64582,302,312,
1634618541621,414,64584,302,311,
1634618541624,442,64587,303,307,
1634618541627,439,64591,302,305,
1634618541631,438,64595,301,304,
1634618541634,451,64595,301,304,
1634618541638,450,64593,303,297,
1634618541642,451,64592,304,293,
1634618541647,417,64592,304,293,
1634618541651,421,64585,307,293,
1634618541656,427,64586,305,298,
1634618541661,221,64584,305,302,
1634618541661,446,64583,303,302,
1634618541661,457,64582,302,305,
1634618541661,446,64583,301,302,
1634618541661,455,64583,301,302,
1634618541661,427,64583,303,304,
1634618541667,457,64583,303,304,
1634618541674,443,64583,303,304,
1634618541681,434,64583,303,304,
1634618541688,438,64583,303,304,
1634618541695,440,64583,303,304,
1634618541695,439,64583,303,304,
1634618541695,436,64583,303,304,
1634618541696,425,64583,303,304,
1634618541696,439,64583,303,304,
1634618541697,446,64583,303,304,
1634618541707,218,64583,303,304,
1634618541717,449,64583,303,304,
1634618541727,426,64583,303,304,
1634618541737,456,64583,303,304,
1634618541748,438,64583,303,304,
1634618541748,427,64583,303,304,
1634618541748,443,64583,303,304,
1634618541748,461,64583,303,304,
1634618541748,444,64583,303,304,
1634618541748,449,64583,303,304,
1634618541754,433,64583,303,304,
1634618541760,448,64583,303,304,
1634618541766,457,64583,303,304,
1634618541772,444,64583,303,304,
1634618541778,448,64583,303,304,
1634618541784,445,64583,303,304,
1634618541790,445,64583,303,304,
1634618541796,457,64583,303,304,
1634618541802,463,64583,303,304,
1634618541808,461,64583,303,304,
1634618541808,227,64583,303,304,
1634618541808,216,64583,303,304,
1634618541809,224,64583,303,304,
1634618541809,463,64583,303,304,
1634618541810,460,64583,303,304,
1634618541810,460,64583,303,304,
1634618541810,432,64583,303,304,
1634618541811,453,64583,303,304,
1634618541811,241,64583,303,304,
1634618541812,225,64583,303,304,
1634618541822,230,64583,303,304,
1634618541833,462,64583,303,304,
1634618541843,231,64583,303,304,
1634618541854,216,64583,303,304,
1634618541865,456,64583,303,304,
1634618541870,221,64583,303,304,
1634618541876,458,64583,303,304,
1634618541881,456,64583,303,304,
1634618541887,457,64583,303,304,
1634618541893,448,64583,303,304,
1634618541893,458,64583,303,304,
1634618541893,222,64583,303,304,
1634618541893,237,64583,303,304,
1634618541893,224,64583,303,304,
1634618541893,218,64583,303,304,
1634618541898,218,64583,303,304,
1634618541904,452,64583,303,304,
1634618541910,455,64583,303,304,
1634618541916,246,64583,303,304,
1634618541922,220,64583,303,304,
1634618541922,450,64583,303,304,
1634618541922,453,64583,303,304,
1634618541922,462,64583,303,304,
1634618541922,250,64583,303,304,
1634618541923,221,64583,303,304,
1634618541933,449,64583,303,304,
1634618541944,218,64583,303,304,
1634618541954,231,64583,303,304,
1634618541965,450,64583,303,304,
1634618541976,241,64583,303,304,
1634618541976,236,64583,303,304,
1634618541976,244,64583,303,304,
1634618541976,249,64583,303,304,
1634618541976,239,64583,303,304,
1634618541976,255,64583,303,304,
1634618541984,216,64595,303,304,
1634618541992,236,64595,303,304,
1634618542000,218,64595,303,304,
1634618542008,266,64595,303,304,
1634618542016,245,64595,303,304,
1634618542027,219,64595,303,304,
1634618542039,246,64595,303,304,
1634618542050,227,64595,303,304,
1634618542062,222,64595,303,304,
1634618542074,271,64595,303,304,
1634618542074,241,64590,304,296,
1634618542074,255,64590,304,296,
1634618542074,244,64590,304,296,
1634618542074,241,64590,304,296,
1634618542074,239,64590,304,296,
1634618542077,245,64590,304,296,
1634618542081,235,64590,304,296,
1634618542084,246,64590,304,296,
1634618542088,281,64590,304,296,
1634618542092,262,64590,304,296,
1634618542092,216,64590,304,296,
1634618542092,253,64590,304,296,
1634618542092,229,64590,304,296,
1634618542092,256,64590,304,296,
1634618542092,237,64590,304,296,
1634618542096,249,64590,304,296,
1634618542100,282,64590,304,296,
1634618542104,267,64590,304,296,
1634618542108,256,64591,300,292,
1634618542112,268,64591,300,292,
1634618542115,268,64591,300,292,
1634618542119,271,64591,300,292,
1634618542122,260,64591,300,292,
1634618542126,236,64591,300,292,
1634618542130,255,64591,300,292,
1634618542135,240,64591,300,292,
1634618542140,255,64591,300,292,
1634618542146,261,64601,311,294,
1634618542151,242,64603,310,296,
1634618542157,275,64603,310,296,
1634618542157,271,64600,307,300,
1634618542157,242,64599,306,303,
1634618542157,267,64595,303,308,
1634618542157,236,64595,299,310,
1634618542157,282,64593,294,309,
1634618542163,263,64592,295,310,
1634618542169,265,64592,296,309,
1634618542175,263,64592,296,309,
1634618542181,279,64588,300,307,
1634618542187,291,64584,304,302,
1634618542187,270,64583,303,307,
1634618542187,240,64583,302,307,
1634618542187,240,64585,302,309,
1634618542187,263,64585,305,303,
1634618542188,248,64589,304,300,
1634618542194,262,64591,303,295,
1634618542201,250,64589,303,292,
1634618542207,244,64588,304,289,
1634618542214,280,64582,305,288,
1634618542221,251,64581,307,287,
1634618542221,260,64579,309,285,
1634618542221,248,64576,309,285,
1634618542221,268,64581,304,285,
1634618542221,246,64581,301,286,
1634618542222,255,64581,300,287,
1634618542229,246,64582,302,290,
1634618542236,267,64582,302,290,
1634618542243,260,64578,303,290,
1634618542250,238,64578,299,292,
1634618542258,267,64577,301,293,
1634618542261,268,64580,299,294,
1634618542265,230,64584,298,294,
1634618542269,247,64581,302,294,
1634618542273,247,64583,314,300,
1634618542277,263,64592,300,298,
1634618542283,239,64594,297,303,
1634618542289,239,64592,307,306,
1634618542295,267,64590,316,305,
1634618542301,249,64592,314,306,
1634618542307,288,64598,308,302,
1634618542307,274,64601,308,300,
1634618542307,265,64603,309,298,
1634618542307,279,64601,306,296,
1634618542307,292,64600,308,294,
1634618542307,262,64600,308,294,
1634618542312,270,64592,310,294,
1634618542318,268,64590,310,295,
1634618542324,271,64588,310,297,
1634618542330,262,64585,308,297,
1634618542336,266,64584,307,302,
1634618542336,292,64585,305,301,
1634618542336,294,64584,303,301,
1634618542336,263,64587,304,300,
1634618542336,278,64588,303,296,
1634618542336,293,64585,305,300,
1634618542343,292,64585,309,301,
1634618542350,292,64581,311,299,
1634618542357,303,64586,309,295,
1634618542364,297,64587,309,292,
1634618542371,297,64592,309,293,
1634618542380,309,64594,308,293,
1634618542390,300,64594,311,296,
1634618542400,279,64597,309,294,
1634618542410,268,64597,309,294,
1634618542420,306,64599,306,298,
1634618542420,270,64599,308,301,
1634618542420,321,64601,306,303,
1634618542420,314,64606,303,302,
1634618542420,305,64604,302,305,
1634618542420,298,64605,305,304,
1634618542425,299,64605,305,304,
1634618542431,329,64596,303,301,
1634618542436,309,64594,299,300,
1634618542442,308,64594,299,300,
1634618542448,318,64590,306,296,
1634618542448,302,64587,307,293,
1634618542448,318,64586,305,295,
1634618542448,285,64585,306,290,
1634618542448,299,64583,306,290,
1634618542448,301,64587,307,291,
1634618542455,319,64587,307,291,
1634618542462,310,64584,308,294,
1634618542469,314,64584,308,294,
1634618542476,293,64579,311,296,
1634618542483,301,64580,307,295,
1634618542489,298,64582,303,294,
1634618542495,290,64582,303,294,
1634618542502,299,64582,303,294,
1634618542508,295,64582,303,294,
1634618542515,307,64582,303,294,
1634618542527,320,64582,303,294,
1634618542540,306,64582,303,294,
1634618542552,309,64582,303,294,
1634618542565,326,64582,303,294,
1634618542578,287,64582,303,294,
1634618542581,295,64582,303,294,
1634618542585,290,64582,303,294,
1634618542588,272,64582,303,294,
1634618542592,283,64582,303,294,
1634618542596,292,64582,303,294,
1634618542596,291,64582,303,294,
1634618542596,333,64582,303,294,
1634618542596,313,64582,303,294,
1634618542596,307,64582,303,294,
1634618542596,326,64582,303,294,
1634618542596,333,64582,303,294,
1634618542596,296,64582,303,294,
1634618542596,314,64582,303,294,
1634618542596,289,64582,303,294,
1634618542596,287,64582,303,294,
1634618542600,330,64582,303,294,
1634618542604,335,64582,303,294,
1634618542608,307,64582,303,294,
1634618542612,322,64582,303,294,
1634618542617,325,64582,303,294,
1634618542620,289,64582,303,294,
1634618542624,331,64582,303,294,
1634618542628,314,64582,303,294,
1634618542632,300,64582,303,294,
1634618542636,331,64582,303,294,
1634618542636,297,64582,303,294,
1634618542636,338,64582,303,294,
1634618542636,325,64582,303,294,
1634618542636,291,64582,303,294,
1634618542636,337,64582,303,294,
1634618542636,331,64582,303,294,
1634618542636,295,64582,303,294,
1634618542636,309,64582,303,294,
1634618542636,303,64582,303,294,
1634618542637,299,64582,303,294,
1634618542646,326,64582,303,294,
1634618542655,329,64582,303,294,
1634618542664,337,64582,303,294,
1634618542673,339,64582,303,294,
1634618542683,318,64582,303,294,
1634618542688,337,64582,303,294,
1634618542694,334,64582,303,294,
1634618542699,330,64582,303,294,
1634618542705,325,64582,303,294,
1634618542711,332,64582,303,294,
1634618542711,337,64582,303,294,
1634618542711,345,64582,303,294,
1634618542711,358,64582,303,294,
1634618542711,340,64582,303,294,
1634618542711,340,64582,303,294,
1634618542718,333,64582,303,294,
1634618542725,340,64582,303,294,
1634618542732,332,64582,303,294,
1634618542739,347,64582,303,294,
1634618542746,338,64582,303,294,
1634618542746,337,64582,303,294,
1634618542746,348,64582,303,294,
1634618542746,329,64582,303,294,
1634618542746,333,64582,303,294,
1634618542747,337,64582,303,294,
1634618542758,348,64582,303,294,
1634618542769,346,64582,303,294,
1634618542780,345,64582,303,294,
1634618542791,340,64582,303,294,
1634618542803,322,64582,303,294,
1634618542803,344,64582,303,294,
1634618542803,350,64582,303,294,
1634618542803,344,64582,303,294,
1634618542803,344,64582,303,294,
1634618542803,357,64582,303,294,
1634618542808,373,64582,303,294,
1634618542813,353,64600,299,296,
1634618542819,349,64600,299,296,
1634618542824,333,64600,299,296,
1634618542830,356,64600,299,296,
1634618542830,384,64600,299,296,
1634618542830,343,64600,299,296,
1634618542830,341,64600,299,296,
1634618542830,375,64600,299,296,
1634618542830,381,64600,299,296,
1634618542835,367,64600,299,296,
1634618542841,356,64579,306,294,
1634618542846,363,64579,306,294,
1634618542852,338,64579,306,294,
1634618542858,356,64579,306,294,
1634618542858,352,64579,306,294,
1634618542858,364,64579,306,294,
1634618542859,363,64579,306,294,
1634618542859,359,64579,306,294,
1634618542860,376,64579,306,294,
1634618542870,384,64594,307,299,
1634618542880,368,64594,307,299,
1634618542890,341,64594,307,299,
1634618542900,364,64594,307,299,
1634618542911,374,64594,307,299,
1634618542911,372,64594,307,299,
1634618542911,358,64594,307,299,
1634618542911,374,64594,307,299,
1634618542911,351,64594,307,299,
1634618542911,381,64594,307,299,
1634618542917,370,64599,309,291,
1634618542923,380,64599,309,291,
1634618542929,379,64599,309,291,
1634618542935,367,64599,309,291,
1634618542941,345,64599,309,291,
1634618542941,354,64599,309,291,
1634618542941,366,64599,309,291,
1634618542941,381,64599,309,291,
1634618542941,391,64599,309,291,
1634618542941,405,64588,307,295,
1634618542947,386,64588,307,295,
1634618542953,388,64588,307,295,
1634618542960,388,64588,307,295,
1634618542966,381,64588,307,295,
1634618542973,381,64588,307,295,
1634618542991,383,64588,307,295,
1634618543010,387,64593,299,295,
1634618543029,385,64596,302,296,
1634618543048,393,64593,305,295,
1634618543067,378,64591,306,293,
1634618543071,364,64590,307,291,
1634618543075,378,64588,310,287,
1634618543079,377,64587,312,286,
1634618543083,376,64590,310,283,
1634618543088,378,64591,311,280,
1634618543088,380,64592,311,279,
1634618543088,402,64592,311,281,
1634618543088,380,64594,313,281,
1634618543088,384,64598,313,282,
1634618543088,376,64601,312,284,
1634618543088,386,64604,312,285,
1634618543088,384,64605,309,286,
1634618543088,399,64605,308,289,
1634618543088,409,64601,307,291,
1634618543088,408,64597,305,294,
1634618543096,361,64593,309,295,
1634618543104,408,64588,307,292,
1634618543112,373,64584,309,290,
1634618543120,365,64585,306,290,
1634618543128,374,64583,304,289,
1634618543128,393,64581,305,289,
1634618543128,399,64578,303,290,
1634618543128,404,64575,305,293,
1634618543128,428,64576,305,299,
1634618543128,393,64576,308,298,
1634618543128,389,64583,301,300,
1634618543128,404,64587,297,300,
1634618543128,393,64590,297,300,
1634618543128,377,64592,301,299,
1634618543128,420,64591,305,295,
1634618543128,411,64589,308,292,
1634618543128,419,64587,311,292,
1634618543128,405,64584,310,293,
1634618543128,417,64586,307,291,
1634618543128,405,64587,306,290,
1634618543134,420,64587,306,291,
1634618543140,420,64586,309,291,
1634618543146,414,64589,311,291,
1634618543152,409,64590,311,292,
1634618543158,414,64596,311,293,
1634618543162,440,64602,310,292,
1634618543166,398,64605,307,291,
1634618543170,424,64606,306,291,
1634618543174,444,64604,307,290,
1634618543179,428,64602,310,293,
1634618543185,414,64599,312,296,
1634618543191,423,64597,312,296,
1634618543197,433,64594,314,295,
1634618543203,433,64593,310,295,
1634618543210,424,64592,312,296,
1634618543210,439,64590,310,297,
1634618543210,433,64589,310,298,
1634618543210,428,64587,308,297,
1634618543210,455,64586,309,297,
1634618543210,426,64583,309,295,
1634618543215,408,64583,306,291,
1634618543221,419,64588,304,291,
1634618543226,426,64588,303,291,
1634618543232,429,64589,302,288,
1634618543238,413,64587,307,285,
1634618543238,440,64585,309,284,
1634618543238,435,64585,312,285,
1634618543238,443,64586,313,286,
1634618543238,436,64586,313,286,
1634618543238,433,64586,313,286,
1634618543244,438,64597,309,285,
1634618543251,416,64598,308,287,
1634618543257,449,64600,312,287,
1634618543264,427,64596,313,288,
1634618543271,420,64595,310,292,
1634618543283,437,64595,308,291,
1634618543295,428,64598,305,295,
1634618543307,441,64598,303,296,
1634618543319,459,64598,303,296,
1634618543331,452,64591,305,301,
1634618543331,445,64585,307,307,
1634618543331,469,64581,305,310,
1634618543331,448,64579,303,312,
1634618543331,435,64578,300,311,
1634618543331,426,64582,298,306,
1634618543342,452,64583,298,297,
1634618543354,457,64582,304,294,
1634618543365,436,64582,304,294,
1634618543377,436,64582,304,294,
1634618543389,437,64580,311,286,
1634618543389,256,64584,307,284,
1634618543389,442,64591,306,281,
1634618543389,454,64593,306,281,
1634618543389,435,64596,310,282,
1634618543389,458,64600,312,281,
1634618543389,452,64600,312,284,
1634618543389,438,64600,312,284,
1634618543389,469,64600,312,284,
1634618543389,461,64602,310,285,
1634618543389,454,64602,310,285,
1634618543389,457,64602,310,285,
1634618543389,447,64602,310,285,
1634618543389,457,64602,310,285,
1634618543389,458,64602,310,285,
1634618543389,459,64602,310,285,
1634618543395,454,64602,310,285,
1634618543401,459,64602,310,285,
1634618543408,225,64602,310,285,
1634618543414,445,64602,310,285,
1634618543421,457,64602,310,285,
1634618543421,448,64602,310,285,
1634618543421,226,64602,310,285,
1634618543421,227,64602,310,285,
1634618543421,446,64602,310,285,
1634618543422,235,64602,310,285,
1634618543432,441,64571,307,292,
1634618543443,453,64571,307,292,
1634618543454,456,64571,307,292,
1634618543465,449,64571,307,292,
1634618543476,444,64571,307,292,
1634618543476,469,64571,307,292,
1634618543476,463,64571,307,292,
1634618543476,466,64571,307,292,
1634618543476,231,64571,307,292,
1634618543476,457,64571,307,292,
1634618543483,225,64571,307,292,
1634618543490,458,64571,307,292,
1634618543497,449,64571,307,292,
1634618543504,242,64571,307,292,
1634618543512,470,64571,307,292,
1634618543523,231,64571,307,292,
1634618543535,468,64571,307,292,
1634618543547,224,64571,307,292,
1634618543559,471,64571,307,292,
1634618543571,235,64571,307,292,
1634618543571,234,64571,307,292,
1634618543571,464,64571,307,292,
1634618543571,256,64571,307,292,
1634618543571,247,64571,307,292,
1634618543571,240,64571,307,292,
1634618543571,239,64571,307,292,
1634618543571,256,64571,307,292,
1634618543571,244,64571,307,292,
1634618543571,253,64571,307,292,
1634618543571,257,64571,307,292,
1634618543571,228,64571,307,292,
1634618543571,228,64571,307,292,
1634618543571,272,64571,307,292,
1634618543571,245,64571,307,292,
1634618543571,261,64571,307,292,
1634618543579,243,64571,307,292,
1634618543587,259,64571,307,292,
1634618543595,238,64571,307,292,
1634618543603,237,64571,307,292,
1634618543612,237,64571,307,292,
1634618543615,245,64571,307,292,
1634618543619,269,64571,307,292,
1634618543623,257,64571,307,292,
1634618543627,250,64571,307,292,
1634618543631,246,64571,307,292,
1634618543636,286,64571,307,292,
1634618543641,259,64571,307,292,
1634618543646,239,64571,307,292,
1634618543651,274,64571,307,292,
1634618543657,275,64571,307,292,
1634618543657,270,64571,307,292,
1634618543657,252,64571,307,292,
1634618543657,277,64571,307,292,
1634618543657,246,64571,307,292,
1634618543657,264,64571,307,292,
1634618543662,256,64571,307,292,
1634618543667,254,64571,307,292,
1634618543673,261,64585,308,286,
1634618543678,284,64585,308,286,
1634618543684,275,64585,308,286,
1634618543684,273,64585,308,286,
1634618543684,264,64585,308,286,
1634618543684,296,64585,308,286,
1634618543684,262,64585,308,286,
1634618543685,273,64585,308,286,
1634618543692,296,64585,308,286,
1634618543699,281,64596,307,289,
1634618543706,310,64596,307,289,
1634618543713,290,64596,307,289,
1634618543721,298,64596,307,289,
1634618543726,314,64596,307,289,
1634618543731,289,64596,307,289,
1634618543736,298,64596,307,289,
1634618543741,300,64596,307,289,
1634618543747,283,64596,307,289,
1634618543758,299,64596,307,289,
1634618543769,284,64584,309,287,
1634618543780,286,64584,309,287,
1634618543791,299,64584,309,287,
1634618543802,300,64584,309,287,
1634618543806,284,64584,309,287,
1634618543810,283,64584,309,287,
1634618543815,289,64584,309,287,
1634618543819,289,64584,309,287,
1634618543824,281,64584,309,287,
1634618543824,305,64588,305,287,
1634618543824,304,64588,305,287,
1634618543824,296,64588,305,287,
1634618543824,315,64588,305,287,
1634618543824,316,64588,305,287,
1634618543824,305,64588,305,287,
1634618543824,314,64588,305,287,
1634618543824,287,64588,305,287,
1634618543824,322,64588,305,287,
1634618543824,306,64597,307,280,
1634618543827,300,64594,306,278,
1634618543831,327,64594,306,278,
1634618543835,313,64594,306,278,
1634618543839,314,64587,313,273,
1634618543843,329,64587,316,271,
1634618543848,341,64587,314,274,
1634618543854,312,64589,311,278,
1634618543859,322,64591,306,279,
1634618543865,317,64592,303,284,
1634618543871,328,64593,304,289,
1634618543871,339,64592,305,291,
1634618543871,335,64595,305,295,
1634618543871,321,64596,303,298,
1634618543871,322,64598,303,298,
1634618543872,361,64599,302,298,
1634618543882,347,64598,303,294,
1634618543892,329,64597,301,293,
1634618543902,316,64592,305,289,
1634618543912,318,64588,307,288,
1634618543922,333,64584,308,286,
1634618543922,344,64579,309,288,
1634618543922,375,64575,312,282,
1634618543922,338,64575,312,276,
1634618543922,309,64578,311,273,
1634618543922,379,64582,310,273,
1634618543927,367,64586,309,275,
1634618543933,323,64589,309,279,
1634618543939,325,64592,306,280,
1634618543945,345,64596,303,284,
1634618543951,346,64598,299,285,
1634618543951,363,64600,300,287,
1634618543951,340,64601,300,289,
1634618543951,360,64600,302,289,
1634618543951,343,64596,300,284,
1634618543951,366,64593,300,283,
1634618543957,372,64590,304,281,
1634618543963,370,64587,307,283,
1634618543970,383,64587,307,283,
1634618543976,354,64585,307,281,
1634618543983,364,64584,305,285,
1634618543983,353,64585,307,289,
1634618543983,338,64587,310,292,
1634618543984,360,64587,305,290,
1634618543984,372,64589,304,293,
1634618543985,374,64589,302,293,
1634618544004,371,64588,305,293,
1634618544024,370,64587,305,291,
1634618544043,363,64586,305,290,
1634618544063,372,64584,305,288,
1634618544083,367,64587,304,280,
1634618544083,355,64587,303,279,
1634618544083,374,64587,306,277,
1634618544083,336,64585,307,276,
1634618544083,371,64582,311,277,
1634618544083,373,64582,314,278,
1634618544083,385,64582,314,278,
1634618544083,383,64587,313,283,
1634618544083,347,64594,310,287,
1634618544083,383,64600,307,288,
1634618544083,357,64604,302,289,
1634618544083,374,64604,304,290,
1634618544083,371,64605,306,290,
1634618544083,381,64603,303,289,
1634618544083,380,64605,300,292,
1634618544083,390,64603,300,293,
1634618544087,405,64603,300,293,
1634618544091,390,64596,301,286,
1634618544095,388,64591,302,287,
1634618544099,393,64587,303,285,
1634618544104,383,64581,304,284,
1634618544111,364,64578,304,281,
1634618544119,397,64578,303,280,
1634618544127,364,64573,305,279,
1634618544135,354,64574,304,278,
1634618544143,382,64574,304,278,
1634618544143,383,64574,302,279,
1634618544143,384,64574,302,279,
1634618544143,390,64581,300,283,
1634618544143,401,64583,301,285,
1634618544143,395,64586,303,284,
1634618544143,393,64588,303,287,
1634618544143,375,64589,305,287,
1634618544143,398,64591,306,290,
1634618544143,421,64591,306,290,
1634618544143,425,64591,306,290,
1634618544148,405,64600,312,286,
1634618544154,398,64600,312,286,
1634618544159,388,64605,312,288,
1634618544165,403,64605,313,290,
1634618544171,378,64608,313,289,
1634618544178,423,64607,313,287,
1634618544185,413,64609,308,284,
1634618544193,387,64609,308,284,
1634618544200,401,64609,308,284,
1634618544208,406,64598,314,282,
1634618544208,410,64598,314,282,
1634618544208,397,64598,314,282,
1634618544209,394,64598,314,282,
1634618544209,416,64598,314,282,
1634618544210,412,64598,314,282,
1634618544219,420,64598,314,282,
1634618544229,419,64598,314,282,
1634618544239,423,64598,314,282,
1634618544249,388,64598,314,282,
1634618544259,386,64598,314,282,
1634618544259,404,64598,314,282,
1634618544259,427,64598,314,282,
1634618544259,415,64598,314,282,
1634618544259,423,64598,314,282,
1634618544259,446,64598,314,282,
1634618544264,381,64598,314,282,
1634618544270,404,64598,314,282,
1634618544276,441,64598,314,282,
1634618544282,388,64598,314,282,
1634618544288,410,64598,314,282,
1634618544288,423,64598,314,282,
1634618544288,409,64598,314,282,
1634618544288,432,64598,314,282,
1634618544288,404,64598,314,282,
1634618544288,417,64598,314,282,
1634618544294,422,64598,314,282,
1634618544301,406,64598,314,282,
1634618544307,424,64598,314,282,
1634618544314,434,64598,314,282,
1634618544321,398,64598,314,282,
1634618544321,434,64598,314,282,
1634618544321,437,64598,314,282,
1634618544321,456,64598,314,282,
1634618544321,447,64598,314,282,
1634618544322,427,64598,314,282,
1634618544333,431,64598,314,282,
1634618544344,426,64598,314,282,
1634618544355,434,64598,314,282,
1634618544366,418,64598,314,282,
1634618544377,430,64598,314,282,
1634618544377,408,64598,314,282,
1634618544377,421,64598,314,282,
1634618544377,401,64598,314,282,
1634618544377,439,64598,314,282,
1634618544377,436,64598,314,282,
1634618544383,445,64598,314,282,
1634618544389,429,64598,314,282,
1634618544395,389,64598,314,282,
1634618544401,436,64598,314,282,
1634618544407,406,64598,314,282,
1634618544407,422,64598,314,282,
1634618544407,418,64598,314,282,
1634618544407,406,64598,314,282,
1634618544407,425,64598,314,282,
1634618544407,439,64598,314,282,
1634618544412,411,64598,314,282,
1634618544418,428,64598,314,282,
1634618544424,428,64598,314,282,
1634618544430,432,64598,314,282,
1634618544436,419,64598,314,282,
1634618544436,439,64598,314,282,
1634618544436,420,64598,314,282,
1634618544436,429,64598,314,282,
1634618544436,438,64598,314,282,
1634618544436,429,64598,314,282,
1634618544443,439,64598,314,282,
1634618544450,405,64598,314,282,
1634618544457,410,64598,314,282,
1634618544464,448,64598,314,282,
1634618544471,437,64598,314,282,
1634618544492,395,64598,314,282,
1634618544535,433,64598,314,282,
1634618544557,438,64598,314,282,
1634618544579,414,64598,314,282,
1634618544583,459,64598,314,282,
1634618544587,435,64598,314,282,
1634618544591,415,64598,314,282,
1634618544595,439,64598,314,282,
1634618544600,438,64598,314,282,
1634618544600,429,64598,314,282,
1634618544600,442,64598,314,282,
1634618544600,455,64598,307,285,
1634618544600,458,64598,307,285,
1634618544600,443,64598,307,285,
1634618544600,440,64598,307,285,
1634618544600,450,64598,307,285,
1634618544600,459,64598,307,285,
1634618544600,470,64598,307,285,
1634618544600,432,64598,307,285,
1634618544604,453,64598,307,285,
1634618544608,452,64586,317,280,
1634618544612,436,64586,317,280,
1634618544616,433,64586,317,280,
1634618544621,464,64586,317,280,
1634618544625,444,64586,317,280,
1634618544629,445,64586,317,280,
1634618544633,478,64586,317,280,
1634618544637,440,64586,317,280,
1634618544641,456,64586,317,280,
1634618544641,458,64586,317,280,
1634618544641,439,64604,310,296,
1634618544641,451,64604,310,296,
1634618544641,455,64604,310,296,
1634618544641,439,64604,310,296,
1634618544641,456,64604,310,296,
1634618544641,452,64604,310,296,
1634618544641,232,64604,310,296,
1634618544641,436,64604,310,296,
1634618544641,434,64604,310,296,
1634618544646,458,64597,312,280,
1634618544651,232,64597,310,279,
1634618544656,429,64597,310,279,
1634618544661,474,64597,305,283,
1634618544667,475,64593,305,285,
1634618544667,466,64592,303,286,
1634618544667,468,64588,303,288,
1634618544667,461,64585,303,289,
1634618544667,240,64584,299,286,
1634618544667,423,64583,300,285,
1634618544673,474,64579,304,284,
1634618544679,450,64577,306,287,
1634618544685,473,64574,306,289,
1634618544691,470,64576,308,290,
1634618544697,234,64578,306,288,
1634618544697,469,64583,305,288,
1634618544697,473,64586,304,286,
1634618544697,243,64585,306,287,
1634618544697,232,64588,307,283,
1634618544697,238,64586,307,280,
1634618544704,479,64588,304,281,
1634618544711,236,64587,302,285,
1634618544718,241,64590,303,288,
1634618544725,280,64593,303,287,
1634618544733,251,64597,304,284,
1634618544745,471,64598,307,282,
1634618544757,242,64595,309,281,
1634618544769,254,64595,310,282,
1634618544781,237,64597,308,282,
1634618544793,274,64596,303,284,
1634618544793,469,64594,305,284,
1634618544793,473,64591,306,286,
1634618544793,252,64589,309,289,
1634618544793,243,64590,306,291,
1634618544793,257,64589,307,287,
1634618544799,254,64590,304,286,
1634618544805,242,64592,303,284,
1634618544812,474,64592,301,282,
1634618544818,261,64590,300,281,
1634618544825,254,64589,302,283,
1634618544825,241,64587,304,284,
1634618544825,276,64585,303,283,
1634618544825,241,64585,302,282,
1634618544825,256,64586,301,279,
1634618544825,245,64587,300,277,
1634618544831,254,64587,300,279,
1634618544838,253,64584,302,282,
1634618544844,287,64584,302,282,
1634618544851,247,64580,304,288,
1634618544858,257,64579,306,288,
1634618544858,264,64578,305,287,
1634618544858,257,64580,307,291,
1634618544858,259,64581,310,293,
1634618544858,263,64582,311,290,
1634618544858,277,64584,313,288,
1634618544864,247,64592,309,286,
1634618544870,292,64592,309,286,
1634618544877,275,64592,309,286,
1634618544883,269,64607,309,284,
1634618544890,264,64607,313,285,
1634618544890,291,64605,313,284,
1634618544890,262,64602,311,283,
1634618544890,270,64603,309,284,
1634618544890,279,64602,308,284,
1634618544890,262,64597,310,283,
1634618544896,300,64593,311,284,
1634618544902,276,64593,311,284,
1634618544908,288,64585,310,284,
1634618544914,272,64585,309,283,
1634618544921,269,64584,309,284,
1634618544928,285,64584,308,280,
1634618544935,283,64582,306,276,
1634618544943,269,64584,311,276,
1634618544950,256,64584,315,279,
1634618544958,282,64587,314,282,
1634618544958,280,64587,314,282,
1634618544958,299,64597,304,284,
1634618544959,279,64600,305,286,
1634618544959,303,64600,305,286,
1634618544960,291,64603,307,287,
1634618544967,300,64600,311,285,
1634618544974,312,64597,310,285,
1634618544981,300,64595,307,283,
1634618544988,267,64592,305,279,
1634618544995,305,64592,305,279,
1634618544998,311,64592,305,279,
1634618545001,288,64583,312,271,
1634618545004,311,64584,313,269,
1634618545007,315,64584,313,269,
1634618545010,322,64589,312,270,
1634618545022,281,64589,313,274,
1634618545034,298,64590,315,276,
1634618545047,299,64589,317,277,
1634618545059,294,64589,317,277,
1634618545072,310,64589,317,277,
1634618545075,307,64589,317,277,
1634618545079,316,64589,317,277,
1634618545082,307,64589,317,277,
1634618545086,290,64589,317,277,
1634618545090,299,64589,317,277,
1634618545090,290,64589,317,277,
1634618545090,283,64589,317,277,
1634618545090,284,64589,317,277,
1634618545090,323,64589,317,277,
1634618545090,319,64589,317,277,
1634618545090,326,64589,317,277,
1634618545090,317,64589,317,277,
1634618545090,335,64589,317,277,
1634618545090,306,64589,317,277,
1634618545091,317,64589,317,277,
1634618545094,349,64589,317,277,
1634618545098,314,64589,317,277,
1634618545102,313,64589,317,277,
1634618545106,324,64589,317,277,
1634618545110,296,64589,317,277,
1634618545110,320,64589,317,277,
1634618545110,334,64589,317,277,
1634618545110,305,64589,317,277,
1634618545110,322,64589,317,277,
1634618545110,327,64589,317,277,
1634618545119,329,64589,317,277,
1634618545129,336,64589,317,277,
1634618545138,333,64589,317,277,
1634618545148,316,64589,317,277,
1634618545158,334,64589,317,277,
1634618545164,347,64589,317,277,
1634618545171,327,64589,317,277,
1634618545178,304,64589,317,277,
1634618545185,312,64589,317,277,
1634618545192,341,64589,317,277,
1634618545192,325,64589,317,277,
1634618545192,340,64589,317,277,
1634618545192,333,64589,317,277,
1634618545192,369,64589,317,277,
1634618545192,359,64589,317,277,
1634618545192,318,64589,317,277,
1634618545192,325,64589,317,277,
1634618545192,346,64589,317,277,
1634618545192,328,64589,317,277,
1634618545192,328,64589,317,277,
1634618545198,338,64589,317,277,
1634618545204,338,64589,317,277,
1634618545210,322,64589,317,277,
1634618545216,335,64589,317,277,
1634618545223,311,64589,317,277,
1634618545223,310,64589,317,277,
1634618545223,338,64589,317,277,
1634618545223,366,64589,317,277,
1634618545223,338,64589,317,277,
1634618545223,341,64589,317,277,
1634618545230,367,64589,317,277,
1634618545237,357,64589,317,277,
1634618545244,324,64589,317,277,
1634618545251,361,64589,317,277,
1634618545258,355,64589,317,277,
1634618545258,332,64589,317,277,
1634618545258,332,64589,317,277,
1634618545259,326,64589,317,277,
1634618545259,337,64589,317,277,
1634618545260,346,64589,317,277,
1634618545267,344,64589,317,277,
1634618545274,345,64589,317,277,
1634618545281,338,64589,317,277,
1634618545288,345,64589,317,277,
1634618545296,343,64589,317,277,
1634618545296,362,64589,317,277,
1634618545296,369,64589,317,277,
1634618545296,345,64589,317,277,
1634618545296,358,64589,317,277,
1634618545297,379,64582,311,273,
1634618545304,362,64582,311,273,
1634618545311,353,64582,311,273,
1634618545318,358,64582,311,273,
1634618545325,356,64582,311,273,
1634618545333,374,64582,311,273,
1634618545345,345,64582,311,273,
1634618545357,375,64582,311,273,
1634618545369,347,64582,311,273,
1634618545381,344,64604,311,278,
1634618545394,361,64604,311,278,
1634618545394,355,64604,311,278,
1634618545394,374,64604,311,278,
1634618545394,359,64604,311,278,
1634618545394,360,64604,311,278,
1634618545394,371,64604,311,278,
1634618545400,328,64604,311,278,
1634618545406,369,64604,311,278,
1634618545413,350,64604,311,278,
1634618545419,347,64604,311,278,
1634618545426,357,64604,311,278,
1634618545426,376,64604,311,278,
1634618545426,356,64604,311,278,
1634618545426,385,64604,311,278,
1634618545426,390,64604,311,278,
1634618545426,381,64604,311,278,
1634618545432,354,64604,311,278,
1634618545438,383,64604,311,278,
1634618545444,351,64604,311,278,
1634618545450,375,64604,311,278,
1634618545456,374,64604,311,278,
1634618545456,384,64604,311,278,
1634618545456,357,64604,311,278,
1634618545456,379,64604,311,278,
1634618545456,381,64604,311,278,
1634618545456,411,64604,311,278,
1634618545462,379,64604,311,278,
1634618545468,392,64597,312,285,
1634618545475,384,64596,312,284,
1634618545481,364,64596,312,284,
1634618545488,355,64599,312,286,
1634618545488,343,64600,313,285,
1634618545488,396,64600,311,282,
1634618545488,383,64604,310,280,
1634618545488,409,64604,313,275,
1634618545488,416,64605,314,273,
1634618545504,379,64602,313,276,
1634618545521,389,64601,314,274,
1634618545538,363,64599,315,278,
1634618545555,394,64596,314,280,
1634618545572,389,64595,309,281,
1634618545575,393,64592,308,287,
1634618545579,390,64588,308,291,
1634618545583,390,64586,305,289,
1634618545587,414,64584,307,285,
1634618545591,442,64584,308,281,
1634618545591,425,64583,310,280,
1634618545591,384,64582,310,280,
1634618545591,384,64583,311,279,
1634618545591,404,64584,312,277,
1634618545591,417,64586,310,276,
1634618545591,408,64590,312,276,
1634618545591,408,64591,317,278,
1634618545591,405,64596,314,280,
1634618545591,410,64600,313,287,
1634618545591,435,64602,311,286,
1634618545595,406,64602,312,286,
1634618545599,405,64603,311,283,
1634618545603,402,64601,315,281,
1634618545607,412,64601,317,279,
1634618545611,443,64598,318,276,
1634618545611,426,64596,320,279,
1634618545611,396,64594,321,281,
1634618545611,420,64597,320,283,
1634618545611,393,64601,317,283,
1634618545611,422,64601,317,283,
1634618545619,418,64602,313,279,
1634618545628,424,64600,313,280,
1634618545636,424,64598,317,280,
1634618545645,432,64596,317,275,
1634618545654,427,64594,313,274,
1634618545659,448,64590,314,274,
1634618545665,415,64589,316,272,
1634618545670,434,64586,315,270,
1634618545676,442,64586,315,270,
1634618545682,417,64590,314,274,
1634618545688,426,64591,307,275,
1634618545694,468,64592,310,274,
1634618545700,443,64591,315,273,
1634618545706,429,64591,316,273,
1634618545712,461,64591,317,266,
1634618545712,442,64594,317,267,
1634618545712,428,64598,317,264,
1634618545712,444,64598,317,264,
1634618545712,463,64603,318,262,
1634618545712,437,64602,318,259,
1634618545712,428,64603,318,260,
1634618545712,427,64602,313,261,
1634618545712,427,64602,311,263,
1634618545712,418,64602,310,264,
1634618545712,444,64599,310,267,
1634618545718,442,64595,308,270,
1634618545725,400,64588,307,272,
1634618545732,432,64588,307,272,
1634618545739,441,64583,303,275,
1634618545746,427,64581,304,279,
1634618545746,438,64578,308,279,
1634618545746,453,64574,312,280,
1634618545746,440,64574,312,285,
1634618545746,427,64574,315,283,
1634618545747,445,64581,311,285,
1634618545757,470,64586,310,284,
1634618545768,429,64586,310,284,
1634618545778,433,64586,310,284,
1634618545789,448,64596,314,285,
1634618545800,465,64598,314,281,
1634618545800,434,64598,314,281,
1634618545800,460,64600,317,281,
1634618545800,466,64595,317,282,
1634618545800,463,64594,317,284,
1634618545800,420,64595,316,281,
1634618545805,454,64595,316,281,
1634618545811,433,64595,316,281,
1634618545816,436,64584,309,286,
1634618545822,455,64582,304,286,
1634618545828,433,64580,303,286,
1634618545828,442,64580,303,286,
1634618545828,444,64584,303,296,
1634618545828,459,64595,297,294,
1634618545828,468,64591,293,294,
1634618545828,437,64587,299,291,
1634618545834,456,64587,299,291,
1634618545840,434,64587,299,291,
1634618545846,432,64587,299,291,
1634618545852,453,64587,299,291,
1634618545858,451,64587,299,291,
1634618545862,448,64587,299,291,
1634618545867,436,64587,299,291,
1634618545871,437,64587,299,291,
1634618545876,469,64587,299,291,
1634618545881,465,64587,299,291,
1634618545886,459,64587,299,291,
1634618545891,480,64587,299,291,
1634618545896,468,64587,299,291,
1634618545901,467,64587,299,291,
1634618545907,479,64587,299,291,
1634618545907,443,64587,299,291,
1634618545907,472,64587,299,291,
1634618545907,447,64587,299,291,
1634618545907,243,64587,299,291,
1634618545907,441,64591,301,297,
1634618545913,442,64591,301,297,
1634618545919,482,64591,301,297,
1634618545926,459,64591,301,297,
1634618545932,445,64591,301,297,
1634618545939,242,64591,301,297,
1634618545955,483,64591,301,297,
1634618545971,456,64591,301,297,
1634618545987,466,64591,301,297,
1634618546003,478,64591,301,297,
1634618546019,242,64591,301,297,
1634618546030,459,64591,301,297,
1634618546041,479,64591,301,297,
1634618546053,266,64591,301,297,
1634618546064,244,64591,301,297,
1634618546076,471,64591,301,297,
1634618546079,483,64591,301,297,
1634618546083,479,64591,301,297,
1634618546086,481,64591,301,297,
1634618546090,250,64591,301,297,
1634618546094,255,64591,301,297,
1634618546094,478,64591,301,297,
1634618546094,468,64591,301,297,
1634618546094,475,64591,301,297,
1634618546094,257,64591,301,297,
1634618546094,480,64591,301,297,
1634618546094,253,64591,301,297,
1634618546094,485,64591,301,297,
1634618546094,263,64591,301,297,
1634618546094,275,64591,301,297,
1634618546094,246,64591,301,297,
1634618546094,475,64591,301,297,
1634618546094,273,64591,301,297,
1634618546094,243,64591,301,297,
1634618546094,470,64591,301,297,
1634618546094,245,64591,301,297,
1634618546098,252,64591,301,297,
1634618546102,263,64591,301,297,
1634618546106,267,64591,301,297,
1634618546110,261,64591,301,297,
1634618546115,486,64591,301,297,
1634618546119,471,64591,301,297,
1634618546123,265,64591,301,297,
1634618546127,240,64591,301,297,
1634618546131,264,64591,301,297,
1634618546136,249,64591,301,297,
1634618546140,255,64591,301,297,
1634618546145,263,64591,301,297,
1634618546150,249,64591,301,297,
1634618546155,486,64591,301,297,
1634618546160,241,64591,301,297,
1634618546160,256,64591,301,297,
1634618546160,483,64591,301,297,
1634618546160,484,64591,301,297,
1634618546160,265,64591,301,297,
1634618546160,245,64591,301,297,
1634618546160,487,64565,296,285,
1634618546160,260,64565,296,285,
1634618546160,260,64565,296,285,
1634618546160,265,64565,296,285,
1634618546160,273,64565,296,285,
1634618546164,285,64565,296,285,
1634618546168,283,64565,296,285,
1634618546173,257,64565,296,285,
1634618546177,256,64565,296,285,
1634618546182,272,64588,299,281,
1634618546186,269,64588,299,281,
1634618546190,275,64588,299,281,
1634618546195,286,64588,299,281,
1634618546199,282,64588,299,281,
1634618546204,274,64588,299,281,
1634618546204,281,64588,299,281,
1634618546204,292,64588,299,281,
1634618546204,275,64588,299,281,
1634618546204,268,64588,299,281,
1634618546204,290,64591,306,269,
1634618546225,262,64591,306,269,
1634618546246,283,64591,306,269,
1634618546268,295,64591,306,269,
1634618546289,314,64591,306,269,
1634618546311,306,64591,306,269,
1634618546311,324,64591,306,269,
1634618546312,313,64591,306,269,
1634618546313,303,64591,306,269,
1634618546314,307,64605,307,267,
1634618546315,310,64605,307,267,
1634618546315,288,64605,307,267,
1634618546315,301,64605,307,267,
1634618546315,289,64605,307,267,
1634618546315,298,64605,307,267,
1634618546315,318,64605,307,267,
1634618546318,324,64605,307,267,
1634618546322,305,64605,307,267,
1634618546326,305,64605,307,267,
1634618546330,322,64604,310,269,
1634618546334,327,64604,310,269,
1634618546334,297,64605,308,274,
1634618546334,312,64601,307,276,
1634618546334,298,64598,308,277,
1634618546334,304,64596,307,280,
1634618546334,295,64593,307,279,
1634618546337,346,64592,307,280,
1634618546341,310,64592,305,282,
1634618546345,328,64591,303,285,
1634618546349,325,64591,302,286,
1634618546353,325,64590,301,285,
1634618546353,334,64593,300,286,
1634618546353,319,64589,298,288,
1634618546353,295,64587,297,286,
1634618546353,321,64585,293,287,
1634618546354,308,64584,295,283,
1634618546362,340,64582,292,287,
1634618546370,324,64582,292,287,
1634618546378,337,64575,299,289,
1634618546386,296,64576,300,292,
1634618546395,339,64581,300,291,
1634618546395,338,64587,297,291,
1634618546395,308,64593,300,288,
1634618546395,319,64595,301,289,
1634618546395,327,64596,307,289,
1634618546395,329,64595,313,289,
1634618546403,316,64595,313,289,
1634618546412,347,64597,310,286,
1634618546420,348,64603,308,286,
1634618546429,308,64604,314,284,
1634618546438,364,64603,319,281,
1634618546438,363,64604,321,278,
1634618546438,332,64605,320,278,
1634618546438,341,64607,319,278,
1634618546438,333,64609,323,275,
1634618546438,363,64608,327,274,
1634618546443,334,64608,327,274,
1634618546448,343,64606,329,274,
1634618546453,368,64607,328,276,
1634618546458,338,64601,326,273,
1634618546464,331,64601,326,275,
1634618546464,363,64598,325,276,
1634618546464,366,64597,324,278,
1634618546464,364,64594,324,279,
1634618546464,354,64590,326,282,
1634618546464,374,64590,326,282,
1634618546476,371,64582,325,283,
1634618546489,366,64580,322,282,
1634618546501,370,64579,325,285,
1634618546514,383,64579,327,282,
1634618546527,379,64581,327,281,
1634618546538,375,64588,325,277,
1634618546550,338,64594,323,274,
1634618546562,364,64601,325,275,
1634618546574,359,64606,325,273,
1634618546586,350,64609,326,276,
1634618546586,392,64611,330,270,
1634618546586,383,64611,329,269,
1634618546586,365,64614,328,268,
1634618546586,365,64613,327,267,
1634618546586,369,64618,329,267,
1634618546586,396,64618,328,267,
1634618546586,389,64617,327,269,
1634618546586,385,64618,324,276,
1634618546586,366,64618,324,276,
1634618546586,362,64615,323,281,
1634618546586,371,64616,320,285,
1634618546586,400,64615,319,284,
1634618546586,410,64612,315,282,
1634618546586,398,64611,318,284,
1634618546586,378,64604,318,282,
1634618546594,383,64602,315,282,
1634618546602,409,64602,317,283,
1634618546610,407,64602,317,283,
1634618546618,413,64602,317,283,
1634618546627,420,64608,315,277,
1634618546627,410,64605,315,276,
1634618546627,406,64603,312,275,
1634618546627,409,64603,312,275,
1634618546627,411,64603,314,275,
1634618546627,419,64601,315,272,
1634618546631,414,64597,317,274,
1634618546635,406,64597,317,274,
1634618546640,407,64597,317,274,
1634618546644,434,64600,315,276,
1634618546649,429,64602,313,275,
1634618546649,455,64605,314,274,
1634618546649,411,64603,320,272,
1634618546649,414,64602,320,271,
1634618546649,431,64602,320,271,
1634618546649,417,64601,318,266,
1634618546657,432,64598,320,267,
1634618546665,421,64598,320,267,
1634618546673,407,64598,320,267,
1634618546681,426,64598,320,267,
1634618546689,428,64598,320,267,
1634618546689,417,64598,320,267,
1634618546689,428,64598,320,267,
1634618546689,426,64598,320,267,
1634618546689,434,64598,320,267,
1634618546689,425,64598,320,267,
1634618546698,425,64598,320,267,
1634618546707,423,64598,320,267,
1634618546716,431,64598,320,267,
1634618546725,440,64598,320,267,
1634618546735,437,64598,320,267,
1634618546735,437,64598,320,267,
1634618546735,422,64598,320,267,
1634618546735,420,64598,320,267,
1634618546735,431,64598,320,267,
1634618546735,458,64598,320,267,
1634618546740,449,64598,320,267,
1634618546745,457,64598,320,267,
1634618546750,450,64598,320,267,
1634618546755,447,64598,320,267,
1634618546761,444,64598,320,267,
1634618546770,437,64598,320,267,
1634618546780,439,64598,320,267,
1634618546790,457,64598,320,267,
1634618546800,447,64598,320,267,
1634618546810,451,64588,300,298,
1634618546810,445,64588,300,298,
1634618546810,435,64588,300,298,
1634618546810,448,64588,300,298,
1634618546810,467,64588,300,298,
1634618546810,435,64588,300,298,
1634618546810,453,64588,300,298,
1634618546810,442,64588,300,298,
1634618546810,470,64588,300,298,
1634618546810,456,64588,300,298,
1634618546810,477,64588,300,298,
1634618546815,479,64588,300,298,
1634618546820,487,64588,300,298,
1634618546825,480,64588,300,298,
1634618546830,447,64588,300,298,
1634618546836,460,64588,300,298,
1634618546845,462,64588,300,298,
1634618546855,484,64588,300,298,
1634618546864,471,64588,300,298,
1634618546874,469,64588,300,298,
1634618546884,492,64588,300,298,
1634618546884,484,64588,300,298,
1634618546884,481,64588,300,298,
1634618546884,249,64588,300,298,
1634618546884,479,64588,300,298,
1634618546884,456,64588,300,298,
1634618546888,481,64588,300,298,
1634618546893,488,64588,300,298,
1634618546898,486,64588,300,298,
1634618546903,248,64588,300,298,
1634618546908,248,64588,300,298,
1634618546908,488,64588,300,298,
1634618546908,475,64588,300,298,
1634618546909,486,64588,300,298,
1634618546909,251,64588,300,298,
1634618546910,485,64588,300,298,
1634618546919,474,64588,300,298,
1634618546929,480,64588,300,298,
1634618546938,255,64588,300,298,
1634618546948,249,64588,300,298,
1634618546958,258,64588,300,298,
1634618546958,487,64588,300,298,
1634618546958,485,64588,300,298,
1634618546958,279,64588,300,298,
1634618546958,469,64588,300,298,
1634618546958,463,64588,300,298,
1634618546963,264,64588,300,298,
1634618546968,257,64588,300,298,
1634618546973,474,64588,300,298,
1634618546978,490,64588,300,298,
1634618546983,248,64588,300,298,
1634618546983,252,64588,300,298,
1634618546983,495,64588,300,298,
1634618546984,264,64588,300,298,
1634618546984,289,64588,300,298,
1634618546985,492,64588,300,298,
1634618547004,286,64607,302,268,
1634618547024,251,64607,302,268,
1634618547043,248,64607,302,268,
1634618547063,253,64607,302,268,
1634618547083,266,64607,302,268,
1634618547086,481,64607,302,268,
1634618547090,256,64607,302,268,
1634618547094,259,64607,302,268,
1634618547098,269,64607,302,268,
1634618547102,477,64607,302,268,
1634618547102,485,64556,297,276,
1634618547102,475,64556,297,276,
1634618547102,481,64556,297,276,
1634618547102,263,64556,297,276,
1634618547102,491,64556,297,276,
1634618547102,265,64556,297,276,
1634618547102,270,64556,297,276,
1634618547102,267,64556,297,276,
1634618547102,261,64556,297,276,
1634618547102,487,64581,294,268,
1634618547105,277,64581,294,268,
1634618547109,255,64581,294,268,
1634618547113,260,64581,294,268,
1634618547117,276,64581,294,268,
1634618547121,274,64581,294,268,
1634618547125,292,64581,294,268,
1634618547129,282,64581,294,268,
1634618547134,275,64581,294,268,
1634618547138,288,64581,294,268,
1634618547143,280,64581,294,268,
1634618547143,288,64581,294,268,
1634618547143,283,64581,294,268,
1634618547143,303,64596,288,276,
1634618547143,268,64594,290,276,
1634618547144,260,64595,286,275,
1634618547144,276,64594,281,274,
1634618547144,286,64592,282,272,
1634618547144,276,64586,286,273,
1634618547144,291,64583,286,276,
1634618547144,292,64575,288,271,
1634618547152,314,64573,289,266,
1634618547160,311,64572,293,259,
1634618547168,311,64569,300,253,
1634618547176,292,64567,304,245,
1634618547184,298,64564,306,240,
1634618547189,312,64567,307,238,
1634618547194,302,64569,309,234,
1634618547200,329,64569,309,234,
1634618547205,318,64573,314,233,
1634618547211,303,64579,312,238,
1634618547211,330,64587,309,246,
1634618547211,318,64595,304,251,
1634618547211,331,64603,299,254,
1634618547211,334,64607,292,258,
1634618547211,324,64607,291,264,
1634618547220,305,64607,292,269,
1634618547230,315,64608,297,274,
1634618547240,328,64608,293,278,
1634618547250,356,64607,293,280,
1634618547260,364,64607,292,278,
1634618547260,331,64605,289,273,
1634618547260,345,64602,288,272,
1634618547260,343,64599,291,269,
1634618547260,329,64595,295,267,
1634618547260,311,64593,297,266,
1634618547265,366,64591,296,263,
1634618547270,360,64590,291,257,
1634618547275,328,64586,290,254,
1634618547280,343,64582,293,248,
1634618547286,343,64574,299,242,
1634618547286,374,64566,303,234,
1634618547286,387,64557,309,225,
1634618547286,345,64554,311,219,
1634618547286,378,64551,317,214,
1634618547286,355,64548,322,215,
1634618547295,347,64546,327,211,
1634618547305,374,64549,326,216,
1634618547315,369,64555,327,222,
1634618547325,357,64561,331,227,
1634618547335,405,64568,334,235,
1634618547335,378,64577,333,242,
1634618547335,373,64588,324,242,
1634618547335,358,64602,320,247,
1634618547335,378,64609,317,251,
1634618547335,366,64612,317,260,
1634618547340,358,64612,317,260,
1634618547345,362,64612,317,274,
1634618547350,373,64615,316,280,
1634618547355,367,64617,310,282,
1634618547360,383,64622,304,286,
1634618547360,361,64627,303,285,
1634618547360,380,64629,305,282,
1634618547360,378,64631,303,275,
1634618547360,340,64632,303,273,
1634618547360,397,64632,303,273,
1634618547370,373,64632,306,267,
1634618547380,377,64634,305,263,
1634618547390,388,64632,302,254,
1634618547400,405,64631,303,243,
1634618547411,391,64628,311,236,
1634618547415,393,64623,320,229,
1634618547420,397,64620,320,223,
1634618547425,375,64617,318,219,
1634618547430,380,64617,318,219,
1634618547435,363,64616,320,214,
1634618547435,387,64610,322,210,
1634618547435,378,64608,326,210,
1634618547435,394,64602,327,212,
1634618547435,388,64600,323,212,
1634618547435,408,64596,321,213,
1634618547445,377,64596,321,213,
1634618547455,389,64587,325,223,
1634618547465,385,64588,324,231,
1634618547475,384,64588,324,231,
1634618547486,368,64590,310,248,
1634618547486,399,64594,308,253,
1634618547486,405,64595,306,261,
1634618547486,367,64595,305,267,
1634618547486,377,64597,302,272,
1634618547486,384,64599,296,275,
1634618547494,402,64599,296,275,
1634618547502,414,64597,289,289,
1634618547510,383,64596,288,294,
1634618547518,406,64592,285,298,
1634618547527,407,64590,281,300,
1634618547539,408,64584,279,302,
1634618547551,417,64581,280,301,
1634618547563,380,64578,280,300,
1634618547575,415,64578,280,300,
1634618547587,392,64578,280,300,
1634618547587,404,64578,280,300,
1634618547587,412,64578,280,300,
1634618547587,380,64578,280,300,
1634618547587,428,64578,280,300,
1634618547587,402,64578,280,300,
1634618547590,418,64578,280,300,
1634618547594,401,64578,280,300,
1634618547598,422,64578,280,300,
1634618547602,417,64578,280,300,
1634618547606,406,64578,280,300,
1634618547606,412,64578,280,300,
1634618547606,434,64578,280,300,
1634618547606,437,64578,280,300,
1634618547606,441,64578,280,300,
1634618547606,407,64578,280,300,
1634618547606,430,64578,280,300,
1634618547606,436,64578,280,300,
1634618547606,424,64578,280,300,
1634618547606,410,64578,280,300,
1634618547606,433,64578,280,300,
1634618547610,441,64578,280,300,
1634618547614,447,64578,280,300,
1634618547619,424,64578,280,300,
1634618547623,456,64578,280,300,
1634618547628,465,64578,280,300,
1634618547628,407,64578,280,300,
1634618547628,437,64578,280,300,
1634618547628,448,64578,280,300,
1634618547628,432,64578,280,300,
1634618547628,435,64578,280,300,
1634618547636,425,64578,280,300,
1634618547645,462,64578,280,300,
1634618547654,452,64578,280,300,
1634618547663,471,64578,280,300,
1634618547672,459,64578,280,300,
1634618547672,405,64578,280,300,
1634618547672,440,64578,280,300,
1634618547672,461,64578,280,300,
1634618547672,411,64578,280,300,
1634618547672,475,64578,280,300,
1634618547680,437,64578,280,300,
1634618547689,458,64578,280,300,
1634618547698,460,64578,280,300,
1634618547707,448,64578,280,300,
1634618547716,469,64578,280,300,
1634618547722,455,64578,280,300,
1634618547728,450,64578,280,300,
1634618547734,464,64578,280,300,
1634618547740,459,64578,280,300,
1634618547746,465,64578,280,300,
1634618547746,459,64578,280,300,
1634618547746,478,64578,280,300,
1634618547746,497,64578,280,300,
1634618547746,448,64578,280,300,
1634618547746,498,64578,280,300,
1634618547751,479,64578,280,300,
1634618547756,480,64578,280,300,
1634618547761,470,64578,280,300,
1634618547766,446,64578,280,300,
1634618547771,478,64578,280,300,
1634618547771,458,64578,280,300,
1634618547771,492,64578,280,300,
1634618547771,488,64578,280,300,
1634618547771,250,64578,280,300,
1634618547772,493,64578,280,300,
1634618547782,474,64578,280,300,
1634618547792,451,64578,280,300,
1634618547802,465,64578,280,300,
1634618547812,467,64578,280,300,
1634618547822,457,64578,280,300,
1634618547822,454,64578,280,300,
1634618547822,478,64578,280,300,
1634618547822,470,64578,280,300,
1634618547822,484,64578,280,300,
1634618547822,452,64578,280,300,
1634618547827,484,64578,280,300,
1634618547832,471,64578,280,300,
1634618547837,438,64578,280,300,
1634618547842,478,64578,280,300,
1634618547848,448,64578,280,300,
1634618547848,478,64578,280,300,
1634618547848,458,64578,280,300,
1634618547848,477,64578,280,300,
1634618547848,474,64578,280,300,
1634618547848,494,64578,280,300,
1634618547858,474,64578,280,300,
1634618547868,488,64592,342,221,
1634618547878,252,64592,342,221,
1634618547888,466,64592,342,221,
1634618547899,480,64592,342,221,
1634618547899,495,64592,342,221,
1634618547899,482,64592,342,221,
1634618547899,469,64592,342,221,
1634618547899,483,64592,342,221,
1634618547899,266,64592,342,221,
1634618547904,263,64687,316,240,
1634618547910,255,64687,316,240,
1634618547916,495,64687,316,240,
1634618547922,276,64687,316,240,
1634618547928,251,64687,316,240,
1634618547928,488,64687,316,240,
1634618547928,489,64687,316,240,
1634618547928,492,64687,316,240,
1634618547928,491,64687,316,240,
1634618547928,258,64593,310,226,
1634618547938,249,64593,310,226,
1634618547948,278,64593,310,226,
1634618547958,488,64593,310,226,
1634618547968,255,64593,310,226,
1634618547979,259,64593,310,226,
1634618547979,259,64593,310,226,
1634618547979,252,64593,310,226,
1634618547979,495,64593,310,226,
1634618547979,474,64593,310,226,
1634618547979,259,64582,287,236,
1634618547986,259,64582,287,236,
1634618547994,264,64588,293,239,
1634618548002,491,64597,295,237,
1634618548010,257,64603,292,239,
1634618548018,281,64607,298,236,
1634618548030,276,64610,303,232,
1634618548043,492,64612,309,225,
