
DateTime,PPG,X,Y,Z,
1635923738689,245,77,289,1323,
1635923738689,226,76,288,1322,
1635923738689,251,75,291,1323,
1635923738689,322,77,289,1324,
1635923738690,236,78,289,1323,
1635923738697,463,76,289,1323,
1635923738704,280,76,289,1323,
1635923738711,284,77,288,1323,
1635923738718,254,77,288,1324,
1635923738726,460,77,289,1323,
1635923738726,458,77,289,1323,
1635923738726,285,77,290,1325,
1635923738727,467,77,290,1323,
1635923738727,296,76,289,1323,
1635923738728,264,77,290,1323,
1635923738734,254,77,290,1323,
1635923738741,252,77,290,1323,
1635923738748,286,78,288,1324,
1635923738755,226,78,289,1323,
1635923738762,282,77,289,1324,
1635923738762,259,74,290,1323,
1635923738762,250,74,290,1323,
1635923738763,255,77,289,1323,
1635923738763,256,78,290,1322,
1635923738764,467,78,290,1322,
1635923738771,258,78,290,1322,
1635923738778,245,78,290,1322,
1635923738785,471,78,290,1322,
1635923738792,271,78,290,1322,
1635923738800,284,78,290,1322,
1635923738800,257,78,290,1322,
1635923738800,281,78,290,1322,
1635923738801,237,78,290,1322,
1635923738801,247,78,290,1322,
1635923738802,268,78,290,1322,
1635923738809,273,78,290,1322,
1635923738816,235,78,290,1322,
1635923738823,263,78,290,1322,
1635923738830,260,78,290,1322,
1635923738838,239,78,290,1322,
1635923738845,250,78,290,1322,
1635923738852,241,78,290,1322,
1635923738860,393,78,290,1322,
1635923738867,266,78,290,1322,
1635923738875,232,78,290,1322,
1635923738875,451,78,290,1322,
1635923738875,233,78,290,1322,
1635923738875,263,78,290,1322,
1635923738875,286,78,290,1322,
1635923738876,229,78,290,1322,
1635923738883,251,78,290,1322,
1635923738890,432,78,290,1322,
1635923738898,270,78,290,1322,
1635923738905,297,78,290,1322,
1635923738913,263,78,290,1322,
1635923738928,468,78,290,1322,
1635923738943,254,78,290,1322,
1635923738958,325,78,290,1322,
1635923738973,448,78,290,1322,
1635923738988,275,78,290,1322,
1635923739006,279,78,290,1322,
1635923739025,253,78,290,1322,
1635923739043,258,78,290,1322,
1635923739062,286,78,290,1322,
1635923739081,261,78,290,1322,
1635923739081,264,78,290,1322,
1635923739082,255,78,290,1322,
1635923739083,294,78,290,1322,
1635923739084,276,78,290,1322,
1635923739085,318,78,290,1322,
1635923739085,301,78,290,1322,
1635923739085,224,78,290,1322,
1635923739085,261,78,290,1322,
1635923739085,287,78,290,1322,
1635923739085,456,78,290,1322,
1635923739085,266,78,290,1322,
1635923739085,264,78,290,1322,
1635923739085,262,78,290,1322,
1635923739085,246,78,290,1322,
1635923739085,282,78,290,1322,
1635923739085,242,78,290,1322,
1635923739085,454,78,290,1322,
1635923739085,250,78,290,1322,
1635923739085,243,78,290,1322,
1635923739085,249,78,290,1322,
1635923739085,289,76,289,1324,
1635923739085,260,77,289,1326,
1635923739085,274,77,289,1326,
1635923739085,263,77,289,1326,
1635923739085,250,77,289,1326,
1635923739085,448,77,289,1326,
1635923739085,232,77,289,1326,
1635923739085,289,77,289,1326,
1635923739085,277,77,289,1326,
1635923739085,233,76,289,1324,
1635923739087,254,76,288,1324,
1635923739090,244,76,288,1324,
1635923739093,443,76,288,1324,
1635923739096,466,76,288,1324,
1635923739099,304,76,288,1324,
1635923739106,273,76,288,1324,
1635923739113,246,76,288,1324,
1635923739121,294,76,288,1324,
1635923739128,234,77,290,1323,
1635923739136,260,77,290,1323,
1635923739136,235,77,290,1323,
1635923739136,237,77,290,1323,
1635923739137,269,77,290,1323,
1635923739137,468,77,290,1323,
1635923739138,451,77,290,1323,
1635923739145,444,77,290,1323,
1635923739152,276,77,290,1323,
1635923739159,252,77,290,1323,
1635923739166,272,76,290,1323,
1635923739173,242,76,290,1323,
1635923739174,277,76,290,1323,
1635923739175,467,76,290,1323,
1635923739176,272,76,290,1323,
1635923739177,294,76,290,1323,
1635923739179,244,76,290,1323,
1635923739185,253,76,290,1323,
1635923739192,281,76,290,1323,
1635923739198,268,75,288,1323,
1635923739205,242,75,288,1323,
1635923739212,262,75,288,1323,
1635923739212,284,75,288,1323,
1635923739212,264,75,288,1323,
1635923739212,294,75,288,1323,
1635923739212,233,75,288,1323,
1635923739213,261,75,288,1323,
1635923739220,283,75,288,1323,
1635923739227,234,75,288,1323,
1635923739234,467,75,288,1323,
1635923739241,456,75,288,1323,
1635923739248,261,75,288,1323,
1635923739248,445,75,288,1323,
1635923739248,262,75,288,1323,
1635923739249,224,75,288,1323,
1635923739249,234,76,290,1322,
1635923739250,266,76,290,1322,
1635923739257,244,76,289,1323,
1635923739264,277,76,290,1322,
1635923739271,237,76,289,1323,
1635923739278,242,77,289,1323,
1635923739286,227,77,290,1323,
1635923739286,468,77,291,1322,
1635923739286,241,77,290,1323,
1635923739287,243,77,291,1324,
1635923739287,280,77,290,1322,
1635923739288,243,76,287,1324,
1635923739295,241,76,287,1324,
1635923739302,247,78,289,1326,
1635923739309,250,76,289,1323,
1635923739316,281,76,290,1323,
1635923739324,232,77,289,1323,
1635923739325,290,78,291,1324,
1635923739326,272,78,289,1324,
1635923739327,277,77,290,1323,
1635923739328,248,76,288,1325,
1635923739329,287,76,289,1323,
1635923739343,413,77,287,1321,
1635923739357,259,77,289,1323,
1635923739371,257,76,287,1324,
1635923739385,259,76,290,1321,
1635923739399,273,75,289,1322,
1635923739399,304,77,289,1324,
1635923739399,470,77,287,1324,
1635923739400,470,78,290,1322,
1635923739400,246,78,287,1324,
1635923739401,254,76,290,1323,
1635923739401,268,77,290,1324,
1635923739401,275,76,290,1323,
1635923739401,284,78,288,1325,
1635923739401,227,76,292,1323,
1635923739402,242,77,289,1324,
1635923739402,265,76,290,1322,
1635923739402,236,76,288,1323,
1635923739403,236,75,289,1322,
1635923739403,247,74,288,1323,
1635923739404,283,74,288,1323,
1635923739410,272,77,290,1324,
1635923739416,268,77,290,1321,
1635923739423,270,78,287,1322,
1635923739429,276,76,290,1323,
1635923739436,246,77,289,1324,
1635923739443,237,77,289,1325,
1635923739451,288,77,288,1325,
1635923739458,252,75,290,1323,
1635923739466,259,76,290,1322,
1635923739474,292,77,291,1323,
1635923739475,262,77,289,1323,
1635923739476,254,77,288,1325,
1635923739477,258,77,290,1322,
1635923739478,278,76,290,1324,
1635923739480,226,76,290,1323,
1635923739486,240,77,287,1323,
1635923739493,229,78,290,1324,
1635923739499,245,78,290,1324,
1635923739506,254,76,289,1324,
1635923739513,282,77,289,1323,
1635923739522,268,76,288,1323,
1635923739532,251,78,291,1321,
1635923739542,253,78,290,1323,
1635923739552,299,76,289,1322,
1635923739562,251,76,288,1325,
1635923739562,233,75,289,1323,
1635923739562,270,75,289,1323,
1635923739562,470,79,289,1323,
1635923739562,451,77,289,1325,
1635923739562,280,76,290,1324,
1635923739562,295,75,289,1325,
1635923739562,259,77,288,1325,
1635923739562,461,78,290,1323,
1635923739562,237,78,290,1323,
1635923739562,227,74,287,1324,
1635923739566,335,74,287,1324,
1635923739571,468,74,287,1324,
1635923739576,256,76,289,1323,
1635923739581,265,77,290,1321,
1635923739586,289,77,289,1323,
1635923739586,256,75,289,1323,
1635923739586,262,77,289,1323,
1635923739587,268,77,288,1324,
1635923739587,262,77,288,1324,
1635923739588,231,77,289,1323,
1635923739595,259,77,289,1323,
1635923739602,273,76,289,1323,
1635923739609,249,79,290,1324,
1635923739616,276,77,290,1323,
1635923739623,266,75,290,1323,
1635923739624,295,75,289,1323,
1635923739626,230,77,290,1323,
1635923739627,258,77,288,1324,
1635923739629,237,77,288,1322,
1635923739631,242,77,288,1322,
1635923739637,265,77,288,1322,
1635923739644,266,76,290,1323,
1635923739651,283,77,290,1323,
1635923739658,275,78,291,1322,
1635923739665,296,77,290,1323,
1635923739665,231,77,290,1323,
1635923739665,226,77,290,1323,
1635923739665,296,77,290,1323,
1635923739665,471,77,290,1323,
1635923739665,297,77,290,1323,
1635923739671,263,77,290,1323,
1635923739678,250,77,290,1323,
1635923739685,257,77,290,1323,
1635923739692,227,77,290,1323,
1635923739699,455,77,290,1323,
1635923739713,293,77,290,1323,
1635923739728,237,77,290,1323,
1635923739742,262,77,290,1323,
1635923739757,288,77,290,1323,
1635923739772,244,77,290,1323,
1635923739772,294,77,290,1323,
1635923739772,268,77,290,1323,
1635923739773,237,77,290,1323,
1635923739773,457,77,290,1323,
1635923739774,260,77,290,1323,
1635923739775,268,77,290,1323,
1635923739776,227,77,290,1323,
1635923739778,244,77,290,1323,
1635923739779,242,77,290,1323,
1635923739781,285,77,290,1323,
1635923739781,231,77,290,1323,
1635923739781,273,77,290,1323,
1635923739781,291,77,290,1323,
1635923739781,446,77,290,1323,
1635923739781,239,77,290,1323,
1635923739787,224,77,290,1323,
1635923739793,267,77,290,1323,
1635923739799,270,77,290,1323,
1635923739805,273,77,290,1323,
1635923739812,465,77,290,1323,
1635923739812,238,77,290,1323,
1635923739812,242,77,290,1323,
1635923739812,299,77,290,1323,
1635923739812,237,77,290,1323,
1635923739813,283,77,290,1323,
1635923739820,267,77,290,1323,
1635923739827,257,77,290,1323,
1635923739834,250,77,290,1323,
1635923739841,302,77,290,1323,
1635923739849,249,77,290,1323,
1635923739849,290,77,290,1323,
1635923739849,261,77,290,1323,
1635923739849,267,77,290,1323,
1635923739849,300,77,290,1323,
1635923739850,292,77,290,1323,
1635923739857,239,77,290,1323,
1635923739864,254,77,290,1323,
1635923739871,306,77,290,1323,
1635923739878,251,77,290,1323,
1635923739886,290,77,290,1323,
1635923739886,288,77,290,1323,
1635923739886,451,77,290,1323,
1635923739887,251,77,290,1323,
1635923739887,305,77,290,1323,
1635923739888,238,77,290,1323,
1635923739895,278,77,290,1323,
1635923739902,298,77,290,1323,
1635923739909,272,77,290,1323,
1635923739916,245,77,290,1323,
1635923739924,261,77,290,1323,
1635923739924,266,77,290,1323,
1635923739924,291,77,290,1323,
1635923739924,291,77,290,1323,
1635923739924,279,77,290,1323,
1635923739925,290,77,290,1323,
1635923739933,259,77,290,1323,
1635923739941,279,77,290,1323,
1635923739950,224,77,290,1323,
1635923739958,259,77,290,1323,
1635923739967,226,77,290,1323,
1635923739973,293,77,290,1323,
1635923739979,249,77,290,1323,
1635923739985,266,77,290,1323,
1635923739991,256,77,290,1323,
1635923739998,275,77,290,1323,
1635923739998,245,77,290,1323,
1635923739999,294,77,290,1323,
1635923739999,292,77,290,1323,
1635923740000,272,77,290,1323,
1635923740001,275,77,290,1323,
1635923740016,273,77,290,1323,
1635923740032,240,77,290,1323,
1635923740048,456,77,290,1323,
1635923740064,247,77,289,1323,
1635923740080,270,77,289,1323,
1635923740081,234,77,289,1323,
1635923740082,286,77,289,1323,
1635923740083,267,77,289,1323,
1635923740084,263,77,289,1323,
1635923740086,458,77,289,1323,
1635923740086,268,77,289,1323,
1635923740086,260,77,289,1323,
1635923740086,265,77,288,1325,
1635923740086,312,77,289,1323,
1635923740086,278,77,289,1323,
1635923740086,468,77,289,1323,
1635923740086,258,77,289,1323,
1635923740086,284,77,289,1323,
1635923740086,230,77,289,1323,
1635923740086,304,77,289,1323,
1635923740092,315,77,289,1323,
1635923740099,235,77,289,1323,
1635923740106,238,78,288,1323,
1635923740113,296,78,288,1323,
1635923740120,275,78,288,1323,
1635923740120,272,78,288,1323,
1635923740120,247,78,288,1323,
1635923740120,234,78,288,1323,
1635923740120,277,78,288,1323,
1635923740120,467,78,288,1323,
1635923740125,468,78,288,1323,
1635923740131,228,78,288,1323,
1635923740136,301,78,288,1323,
1635923740142,282,78,288,1323,
1635923740148,298,78,288,1323,
1635923740155,301,78,288,1323,
1635923740163,463,78,288,1323,
1635923740170,282,75,289,1325,
1635923740178,277,75,287,1323,
1635923740186,280,77,290,1325,
1635923740186,279,76,286,1325,
1635923740186,258,77,292,1322,
1635923740187,224,78,291,1320,
1635923740187,241,79,287,1325,
1635923740188,255,78,293,1324,
1635923740189,270,76,287,1323,
1635923740191,283,74,291,1321,
1635923740193,270,76,285,1329,
1635923740195,297,77,291,1320,
1635923740197,289,78,287,1322,
1635923740202,318,75,292,1326,
1635923740207,291,77,287,1327,
1635923740212,283,76,292,1324,
1635923740217,314,79,291,1322,
1635923740223,298,77,286,1321,
1635923740223,294,77,288,1323,
1635923740223,470,75,289,1323,
1635923740224,244,76,291,1324,
1635923740224,238,76,288,1325,
1635923740225,299,76,288,1325,
1635923740232,286,78,288,1323,
1635923740239,297,77,292,1321,
1635923740247,266,77,290,1324,
1635923740254,269,79,290,1322,
1635923740262,232,78,288,1324,
1635923740262,261,75,290,1324,
1635923740262,301,75,288,1322,
1635923740262,315,75,289,1323,
1635923740262,281,77,288,1322,
1635923740263,316,77,289,1322,
1635923740270,298,77,289,1324,
1635923740277,309,76,289,1325,
1635923740284,271,75,289,1323,
1635923740291,247,77,288,1323,
1635923740299,288,76,289,1321,
1635923740306,260,76,290,1317,
1635923740313,293,78,288,1328,
1635923740321,294,76,289,1333,
1635923740328,277,76,289,1328,
1635923740336,281,74,289,1325,
1635923740343,275,77,289,1316,
1635923740351,300,75,289,1318,
1635923740358,254,77,291,1323,
1635923740366,282,75,287,1329,
1635923740374,296,77,285,1327,
1635923740374,284,77,288,1322,
1635923740374,292,76,291,1320,
1635923740375,462,76,291,1320,
1635923740375,266,77,291,1319,
1635923740376,346,75,289,1324,
1635923740376,297,74,291,1326,
1635923740376,291,76,288,1322,
1635923740376,284,78,289,1322,
1635923740376,290,76,291,1323,
1635923740377,276,77,289,1323,
1635923740384,277,75,290,1324,
1635923740391,252,75,290,1324,
1635923740398,317,75,290,1324,
1635923740405,239,76,288,1321,
1635923740413,243,78,269,1328,
1635923740413,284,104,300,1310,
1635923740413,291,138,250,1326,
1635923740413,334,138,239,1335,
1635923740413,273,134,229,1345,
1635923740413,236,137,233,1340,
1635923740420,284,124,261,1346,
1635923740428,227,124,261,1346,
1635923740435,391,93,315,1306,
1635923740443,316,69,390,1260,
1635923740451,286,36,472,1208,
1635923740451,246,65535,527,1189,
1635923740451,300,65478,456,1337,
1635923740451,277,65489,215,1346,
1635923740451,241,65514,322,1338,
1635923740451,302,18,333,1328,
1635923740458,284,18,333,1328,
1635923740465,321,18,333,1328,
1635923740472,289,125,92,1361,
1635923740479,336,125,92,1361,
1635923740487,265,105,190,1354,
1635923740487,451,92,342,1298,
1635923740487,235,62,320,1315,
1635923740487,257,55,277,1336,
1635923740487,454,70,292,1324,
1635923740488,372,70,292,1324,
1635923740496,455,70,292,1324,
1635923740505,460,80,292,1319,
1635923740514,450,83,289,1324,
1635923740523,494,83,289,1324,
1635923740532,580,79,286,1323,
1635923740532,540,75,286,1324,
1635923740532,475,71,289,1324,
1635923740532,494,76,289,1324,
1635923740532,500,76,289,1324,
1635923740532,311,76,289,1324,
1635923740545,454,76,289,1324,
1635923740558,380,76,289,1324,
1635923740571,396,76,289,1324,
1635923740584,431,76,289,1324,
1635923740598,240,76,289,1324,
1635923740599,389,76,289,1324,
1635923740601,268,76,289,1324,
1635923740602,265,76,289,1324,
1635923740604,297,76,289,1324,
1635923740606,253,76,289,1324,
1635923740606,453,76,289,1324,
1635923740606,259,76,289,1324,
1635923740606,271,76,289,1324,
1635923740606,278,76,289,1324,
1635923740607,279,76,289,1324,
1635923740613,313,76,289,1324,
1635923740620,323,76,289,1324,
1635923740627,327,76,289,1324,
1635923740634,266,76,289,1324,
1635923740641,303,76,289,1324,
1635923740641,309,76,289,1324,
1635923740641,263,76,289,1324,
1635923740641,310,76,289,1324,
1635923740641,321,76,289,1324,
1635923740641,265,76,289,1324,
1635923740647,309,76,289,1324,
1635923740654,309,76,289,1324,
1635923740660,318,76,289,1324,
1635923740667,292,76,289,1324,
1635923740674,380,76,289,1324,
1635923740674,257,76,289,1324,
1635923740674,267,76,289,1324,
1635923740674,365,76,289,1324,
1635923740674,334,76,289,1324,
1635923740675,313,76,289,1324,
1635923740682,300,76,289,1324,
1635923740689,282,76,289,1324,
1635923740696,326,76,289,1324,
1635923740703,311,76,289,1324,
1635923740711,283,76,289,1324,
1635923740711,280,76,289,1324,
1635923740711,341,76,289,1324,
1635923740712,289,76,289,1324,
1635923740712,315,76,289,1324,
1635923740713,370,76,289,1324,
1635923740720,307,76,289,1324,
1635923740727,285,76,289,1324,
1635923740734,286,76,289,1324,
1635923740741,240,76,289,1324,
1635923740749,302,76,289,1324,
1635923740749,319,76,289,1324,
1635923740749,356,76,289,1324,
1635923740749,333,76,289,1324,
1635923740749,315,76,289,1324,
1635923740750,298,76,289,1324,
1635923740758,314,76,289,1324,
1635923740766,286,76,289,1324,
1635923740774,317,76,289,1324,
1635923740782,302,76,289,1324,
1635923740790,320,76,289,1324,
1635923740790,329,76,289,1324,
1635923740790,308,76,289,1324,
1635923740790,295,76,289,1324,
1635923740790,285,76,289,1324,
1635923740790,235,76,289,1324,
1635923740796,300,76,289,1324,
1635923740803,255,76,289,1324,
1635923740810,262,76,289,1324,
1635923740817,318,76,289,1324,
1635923740824,322,76,289,1324,
1635923740824,235,76,289,1324,
1635923740824,295,76,289,1324,
1635923740825,349,76,289,1324,
1635923740825,275,76,289,1324,
1635923740826,289,76,289,1324,
1635923740833,356,76,289,1324,
1635923740840,296,76,289,1324,
1635923740847,276,76,289,1324,
1635923740854,297,76,289,1324,
1635923740861,345,76,289,1324,
1635923740876,356,76,289,1324,
1635923740891,287,76,289,1324,
1635923740906,326,76,289,1324,
1635923740921,247,76,289,1324,
1635923740936,294,76,289,1324,
1635923740938,333,76,289,1324,
1635923740940,315,76,289,1324,
1635923740942,314,76,289,1324,
1635923740944,278,76,289,1324,
1635923740947,238,76,289,1324,
1635923740947,290,76,289,1324,
1635923740947,298,76,289,1324,
1635923740947,263,76,289,1324,
1635923740947,313,77,288,1324,
1635923740947,289,77,288,1324,
1635923740947,378,77,288,1324,
1635923740947,328,77,288,1324,
1635923740947,323,77,288,1324,
1635923740947,280,77,288,1324,
1635923740947,330,77,288,1324,
1635923740952,304,77,288,1324,
1635923740957,360,77,288,1324,
1635923740962,282,77,288,1324,
1635923740967,286,80,290,1321,
1635923740973,264,80,290,1321,
1635923740973,314,80,290,1321,
1635923740973,325,80,290,1321,
1635923740974,265,80,290,1321,
1635923740974,295,80,290,1321,
1635923740975,297,80,290,1321,
1635923740982,326,80,290,1321,
1635923740990,239,80,290,1321,
1635923740998,296,79,288,1326,
1635923741006,294,79,288,1326,
1635923741014,232,79,288,1326,
1635923741014,315,79,288,1326,
1635923741014,336,79,288,1326,
1635923741014,294,79,288,1326,
1635923741014,312,77,289,1324,
1635923741014,243,80,290,1323,
1635923741033,290,78,288,1325,
1635923741052,324,77,290,1324,
1635923741071,274,78,288,1325,
1635923741090,293,77,289,1322,
1635923741110,337,77,288,1323,
1635923741112,324,78,288,1322,
1635923741114,300,77,287,1324,
1635923741116,307,78,288,1324,
1635923741118,286,77,290,1323,
1635923741120,376,78,288,1321,
1635923741120,268,79,290,1324,
1635923741120,280,79,288,1324,
1635923741120,473,78,288,1324,
1635923741120,365,78,288,1324,
1635923741121,315,79,288,1323,
1635923741121,338,78,288,1323,
1635923741121,310,78,289,1322,
1635923741121,286,77,288,1323,
1635923741121,260,79,289,1321,
1635923741121,281,78,290,1324,
1635923741121,337,80,289,1324,
1635923741121,296,78,288,1322,
1635923741122,326,77,289,1324,
1635923741122,310,78,290,1323,
1635923741123,302,79,288,1323,
1635923741123,232,77,288,1322,
1635923741123,310,77,289,1323,
1635923741124,311,78,290,1323,
1635923741124,476,78,288,1323,
1635923741125,283,77,288,1322,
1635923741134,242,77,287,1323,
1635923741143,305,78,291,1322,
1635923741152,270,79,288,1325,
1635923741161,327,78,288,1325,
1635923741170,332,78,288,1326,
1635923741170,337,77,289,1324,
1635923741170,314,78,289,1324,
1635923741170,316,78,291,1323,
1635923741170,347,78,291,1323,
1635923741170,294,77,288,1325,
1635923741185,360,76,289,1324,
1635923741201,321,78,288,1325,
1635923741216,321,76,288,1323,
1635923741232,320,78,292,1311,
1635923741248,340,79,288,1330,
1635923741248,282,78,290,1329,
1635923741248,236,77,287,1328,
1635923741248,267,77,292,1323,
1635923741248,267,78,285,1312,
1635923741248,312,78,291,1320,
1635923741248,340,80,288,1326,
1635923741248,292,77,288,1321,
1635923741248,316,76,288,1325,
1635923741248,325,77,289,1326,
1635923741248,298,79,290,1322,
1635923741253,235,79,291,1322,
1635923741258,354,78,288,1325,
1635923741263,313,78,288,1325,
1635923741268,336,77,288,1325,
1635923741274,332,78,288,1325,
1635923741274,265,78,289,1323,
1635923741274,294,77,290,1322,
1635923741275,315,77,289,1324,
1635923741275,282,78,290,1325,
1635923741276,260,78,289,1325,
1635923741284,316,78,288,1324,
1635923741292,295,78,288,1324,
1635923741301,296,78,288,1323,
1635923741309,315,79,287,1324,
1635923741318,300,78,289,1323,
1635923741318,309,79,289,1325,
1635923741318,282,77,289,1324,
1635923741318,287,79,289,1324,
1635923741318,284,77,289,1323,
1635923741318,326,79,290,1322,
1635923741324,316,79,289,1322,
1635923741330,270,78,289,1323,
1635923741336,350,77,288,1323,
1635923741342,316,78,289,1324,
1635923741348,266,77,289,1323,
1635923741348,284,78,288,1323,
1635923741348,290,78,288,1324,
1635923741349,348,78,288,1324,
1635923741349,297,77,290,1322,
1635923741350,233,78,288,1324,
1635923741358,273,78,288,1324,
1635923741367,313,78,288,1324,
1635923741375,355,78,289,1323,
1635923741384,260,78,289,1324,
1635923741393,316,77,289,1326,
1635923741393,299,77,290,1323,
1635923741393,328,77,290,1325,
1635923741393,295,77,290,1325,
1635923741393,302,78,289,1323,
1635923741393,300,78,289,1323,
1635923741399,264,78,289,1323,
1635923741405,332,78,289,1323,
1635923741411,270,78,289,1323,
1635923741417,326,78,289,1323,
1635923741423,327,78,289,1323,
1635923741423,266,78,289,1323,
1635923741423,282,78,289,1323,
1635923741424,278,78,289,1323,
1635923741424,283,78,289,1323,
1635923741425,264,78,289,1323,
1635923741433,243,78,289,1323,
1635923741442,310,78,289,1323,
1635923741451,251,78,289,1323,
1635923741460,295,78,289,1323,
1635923741469,317,78,289,1323,
1635923741474,276,78,289,1323,
1635923741480,294,78,289,1323,
1635923741486,288,78,289,1323,
1635923741492,289,78,289,1323,
1635923741498,349,78,289,1323,
1635923741498,313,78,289,1323,
1635923741498,300,78,289,1323,
1635923741499,290,78,289,1323,
1635923741499,295,78,289,1323,
1635923741500,319,78,289,1323,
1635923741507,241,78,289,1323,
1635923741514,278,78,289,1323,
1635923741521,255,78,289,1323,
1635923741528,311,78,289,1323,
1635923741536,271,78,289,1323,
1635923741536,270,78,289,1323,
1635923741536,307,78,289,1323,
1635923741537,368,78,289,1323,
1635923741537,291,78,289,1323,
1635923741538,327,78,289,1323,
1635923741550,282,78,289,1323,
1635923741562,277,78,289,1323,
1635923741574,271,78,289,1323,
1635923741586,329,78,289,1323,
1635923741599,248,78,289,1323,
1635923741599,328,78,289,1323,
1635923741599,267,78,289,1323,
1635923741599,343,78,289,1323,
1635923741599,329,78,289,1323,
1635923741599,299,78,289,1323,
1635923741601,315,78,289,1323,
1635923741604,329,78,289,1323,
1635923741607,339,78,289,1323,
1635923741610,305,78,289,1323,
1635923741613,273,78,289,1323,
1635923741620,298,78,289,1323,
1635923741627,326,78,289,1323,
1635923741634,326,78,289,1323,
1635923741641,326,78,289,1323,
1635923741648,296,78,289,1323,
1635923741648,312,78,289,1323,
1635923741648,234,78,289,1323,
1635923741648,322,78,289,1323,
1635923741648,306,78,289,1323,
1635923741649,300,78,289,1323,
1635923741649,323,78,289,1323,
1635923741649,354,78,289,1323,
1635923741650,344,78,289,1323,
1635923741650,322,78,289,1323,
1635923741651,336,78,289,1323,
1635923741658,320,78,289,1323,
1635923741666,331,78,289,1323,
1635923741674,262,78,289,1323,
1635923741682,306,78,289,1323,
1635923741690,307,78,289,1323,
1635923741690,325,78,289,1323,
1635923741690,305,78,289,1323,
1635923741690,270,78,289,1323,
1635923741690,300,78,289,1323,
1635923741690,282,78,289,1323,
1635923741696,278,79,289,1324,
1635923741703,315,79,289,1324,
1635923741710,312,79,289,1324,
1635923741717,295,79,289,1324,
1635923741724,347,79,289,1324,
1635923741724,307,79,289,1324,
1635923741724,296,79,289,1324,
1635923741724,297,79,289,1324,
1635923741724,320,79,289,1324,
1635923741725,281,77,287,1324,
1635923741734,299,77,287,1324,
1635923741743,373,77,287,1324,
1635923741752,325,77,287,1324,
1635923741761,370,77,287,1324,
1635923741770,326,77,287,1324,
1635923741775,306,77,287,1324,
1635923741781,328,77,287,1324,
1635923741786,306,77,287,1324,
1635923741792,350,79,289,1323,
1635923741798,269,79,289,1323,
1635923741798,277,79,289,1323,
1635923741799,339,79,289,1323,
1635923741799,323,79,289,1323,
1635923741800,302,79,289,1323,
1635923741801,307,79,289,1323,
1635923741811,282,79,289,1323,
1635923741821,248,79,289,1323,
1635923741831,245,77,289,1322,
1635923741841,311,79,287,1324,
1635923741851,262,79,287,1324,
1635923741851,478,79,287,1324,
1635923741851,289,79,287,1324,
1635923741851,305,79,287,1324,
1635923741851,282,79,287,1324,
1635923741851,309,79,287,1324,
1635923741856,304,79,287,1324,
1635923741861,316,78,291,1323,
1635923741866,277,79,288,1325,
1635923741871,339,79,290,1324,
1635923741876,313,77,289,1325,
1635923741876,326,78,289,1324,
1635923741876,347,76,289,1323,
1635923741876,284,77,288,1323,
1635923741876,345,78,290,1323,
1635923741876,302,79,289,1326,
1635923741883,293,81,289,1325,
1635923741890,318,76,291,1322,
1635923741897,286,77,288,1322,
1635923741904,263,79,289,1322,
1635923741911,319,77,288,1321,
1635923741911,317,78,289,1322,
1635923741911,305,79,288,1324,
1635923741912,338,77,289,1323,
1635923741912,260,78,289,1322,
1635923741913,288,78,288,1322,
1635923741921,300,78,288,1323,
1635923741929,293,78,288,1323,
1635923741938,283,77,289,1323,
1635923741946,327,78,289,1323,
1635923741955,304,78,288,1322,
1635923741955,285,78,288,1323,
1635923741955,304,77,288,1324,
1635923741955,328,78,288,1324,
1635923741955,333,79,288,1322,
1635923741955,287,79,288,1324,
1635923741961,298,78,288,1323,
1635923741967,288,79,288,1323,
1635923741973,290,79,288,1322,
1635923741979,330,78,290,1322,
1635923741986,303,78,288,1324,
1635923741986,279,80,288,1324,
1635923741986,249,79,288,1323,
1635923741987,297,80,290,1323,
1635923741987,348,79,290,1322,
1635923741988,305,77,288,1323,
1635923742008,344,79,288,1324,
1635923742028,295,78,288,1324,
1635923742068,305,77,289,1322,
1635923742088,283,78,289,1322,
1635923742090,254,79,288,1322,
1635923742093,272,78,290,1323,
1635923742096,270,77,289,1323,
1635923742099,323,78,289,1323,
1635923742102,340,78,287,1323,
1635923742102,333,78,289,1323,
1635923742102,327,78,288,1325,
1635923742102,356,77,287,1324,
1635923742102,260,76,287,1325,
1635923742102,338,78,287,1323,
1635923742102,326,79,287,1323,
1635923742102,358,78,288,1323,
1635923742102,281,79,290,1323,
1635923742102,247,79,290,1323,
1635923742103,396,79,290,1323,
1635923742105,284,77,288,1323,
1635923742108,314,77,287,1322,
1635923742111,276,78,288,1323,
1635923742114,303,77,289,1323,
1635923742117,353,78,288,1325,
1635923742123,327,78,288,1324,
1635923742129,320,78,288,1324,
1635923742135,325,78,288,1324,
1635923742141,269,80,290,1323,
1635923742148,271,78,290,1324,
1635923742148,323,78,290,1323,
1635923742148,340,78,288,1326,
1635923742148,288,78,287,1325,
1635923742148,330,78,289,1325,
1635923742148,326,78,289,1322,
1635923742153,337,79,288,1323,
1635923742158,366,78,289,1324,
1635923742163,270,78,289,1324,
1635923742168,327,78,288,1323,
1635923742174,332,78,288,1324,
1635923742174,329,78,289,1323,
1635923742174,248,78,289,1323,
1635923742174,346,78,288,1323,
1635923742174,337,78,290,1323,
1635923742175,388,78,289,1322,
1635923742182,329,78,288,1324,
1635923742189,361,78,288,1324,
1635923742196,335,78,288,1324,
1635923742203,294,78,289,1324,
1635923742211,330,76,289,1323,
1635923742211,309,78,289,1324,
1635923742211,330,77,288,1322,
1635923742211,258,80,290,1324,
1635923742211,285,79,289,1324,
1635923742212,279,78,288,1324,
1635923742220,297,78,288,1324,
1635923742228,295,78,288,1324,
1635923742236,340,78,288,1323,
1635923742244,344,78,288,1323,
1635923742253,315,78,288,1323,
1635923742253,326,78,288,1323,
1635923742253,288,78,288,1323,
1635923742253,301,78,288,1323,
1635923742253,277,78,288,1323,
1635923742253,327,78,288,1323,
1635923742263,367,78,288,1323,
1635923742274,338,78,288,1323,
1635923742285,329,78,288,1323,
1635923742296,344,78,288,1323,
1635923742307,304,78,288,1323,
1635923742307,306,78,288,1323,
1635923742307,375,78,288,1323,
1635923742307,373,78,288,1323,
1635923742307,348,78,288,1323,
1635923742308,306,78,288,1323,
1635923742311,362,78,288,1323,
1635923742314,298,78,288,1323,
1635923742317,289,78,288,1323,
1635923742320,313,78,288,1323,
1635923742324,363,78,288,1323,
1635923742324,349,78,288,1323,
1635923742324,279,78,288,1323,
1635923742324,304,78,288,1323,
1635923742324,307,78,288,1323,
1635923742325,290,78,288,1323,
1635923742332,313,78,288,1323,
1635923742339,306,78,288,1323,
1635923742346,312,78,288,1323,
1635923742353,340,78,288,1323,
1635923742361,347,78,288,1323,
1635923742369,281,78,288,1323,
1635923742377,275,78,288,1323,
1635923742385,316,78,288,1323,
1635923742393,336,78,288,1323,
1635923742401,248,78,288,1323,
1635923742401,355,78,288,1323,
1635923742401,320,78,288,1323,
1635923742401,338,78,288,1323,
1635923742401,335,78,288,1323,
1635923742401,329,78,288,1323,
1635923742408,297,78,288,1323,
1635923742415,288,78,288,1323,
1635923742422,372,78,288,1323,
1635923742429,311,78,288,1323,
1635923742436,331,78,288,1323,
1635923742436,357,78,288,1323,
1635923742436,266,78,288,1323,
1635923742437,309,78,288,1323,
1635923742437,331,78,288,1323,
1635923742438,342,78,288,1323,
1635923742447,381,78,288,1323,
1635923742456,337,78,288,1323,
1635923742465,325,78,286,1328,
1635923742474,355,78,286,1328,
1635923742484,340,78,286,1328,
1635923742484,307,78,286,1328,
1635923742484,340,78,286,1328,
1635923742484,292,78,286,1328,
1635923742484,375,78,286,1328,
1635923742484,330,78,286,1328,
1635923742489,333,78,286,1328,
1635923742494,360,78,286,1328,
1635923742500,326,78,286,1328,
1635923742505,326,78,286,1328,
1635923742511,323,78,286,1328,
1635923742511,304,78,286,1328,
1635923742511,331,78,286,1328,
1635923742512,271,78,286,1328,
1635923742512,303,78,286,1328,
1635923742513,331,78,286,1328,
1635923742526,309,78,286,1328,
1635923742539,338,78,286,1328,
1635923742552,380,78,286,1328,
1635923742565,370,78,286,1328,
1635923742579,367,78,286,1328,
1635923742582,364,78,286,1328,
1635923742586,286,78,286,1328,
1635923742590,319,78,286,1328,
1635923742594,328,78,286,1328,
1635923742598,325,78,286,1328,
1635923742600,313,78,286,1328,
1635923742602,295,78,286,1328,
1635923742605,362,78,286,1328,
1635923742607,357,78,286,1328,
1635923742610,307,78,286,1328,
1635923742613,367,78,286,1328,
1635923742617,343,78,286,1328,
1635923742620,334,78,286,1328,
1635923742624,344,78,286,1328,
1635923742628,300,78,288,1327,
1635923742628,364,78,289,1332,
1635923742628,290,78,289,1332,
1635923742628,346,78,289,1332,
1635923742628,361,78,289,1332,
1635923742628,322,78,289,1332,
1635923742628,344,78,289,1332,
1635923742628,295,78,289,1332,
1635923742628,320,78,289,1332,
1635923742628,342,78,289,1332,
1635923742628,295,78,289,1332,
1635923742634,333,78,289,1332,
1635923742641,380,78,289,1332,
1635923742647,332,78,289,1332,
1635923742654,353,78,289,1332,
1635923742661,335,78,289,1332,
1635923742668,307,78,289,1332,
1635923742676,327,78,289,1332,
1635923742683,309,78,289,1332,
1635923742691,340,78,289,1332,
1635923742699,281,78,289,1332,
1635923742699,327,78,289,1332,
1635923742699,322,78,289,1332,
1635923742699,283,78,289,1332,
1635923742699,307,78,289,1332,
1635923742700,296,78,289,1332,
1635923742710,363,78,289,1332,
1635923742720,334,78,289,1332,
1635923742730,323,78,290,1323,
1635923742740,323,78,288,1324,
1635923742751,364,78,289,1325,
1635923742751,304,78,289,1322,
1635923742751,348,78,289,1324,
1635923742751,331,79,287,1324,
1635923742751,328,78,288,1324,
1635923742752,337,77,288,1323,
1635923742756,312,79,290,1324,
1635923742760,364,78,288,1324,
1635923742764,350,78,289,1324,
1635923742768,317,78,289,1323,
1635923742773,322,77,290,1324,
1635923742773,343,77,290,1324,
1635923742774,325,79,289,1324,
1635923742774,325,79,287,1325,
1635923742775,378,78,288,1323,
1635923742776,313,77,288,1323,
1635923742785,320,79,288,1323,
1635923742795,287,78,288,1323,
1635923742805,336,78,287,1324,
1635923742815,287,78,291,1323,
1635923742825,347,77,288,1324,
1635923742825,309,79,291,1321,
1635923742825,318,77,289,1324,
1635923742825,347,78,290,1322,
1635923742825,365,78,288,1325,
1635923742825,333,78,290,1324,
1635923742832,318,78,288,1322,
1635923742839,315,78,290,1322,
1635923742846,336,79,289,1323,
1635923742853,306,79,288,1323,
1635923742860,336,79,288,1323,
1635923742860,333,79,289,1322,
1635923742860,300,79,289,1323,
1635923742860,309,79,289,1324,
1635923742860,336,79,290,1324,
1635923742860,345,77,289,1323,
1635923742866,317,77,290,1322,
1635923742872,324,79,288,1323,
1635923742878,315,78,289,1322,
1635923742884,315,78,290,1324,
1635923742891,350,79,288,1322,
1635923742891,275,77,290,1322,
1635923742891,342,77,290,1323,
1635923742891,284,77,288,1323,
1635923742891,326,78,289,1323,
1635923742891,343,78,289,1323,
1635923742897,373,78,290,1324,
1635923742904,359,79,289,1326,
1635923742910,323,78,289,1324,
1635923742917,345,78,289,1325,
1635923742924,358,78,289,1323,
1635923742931,347,78,289,1323,
1635923742938,362,79,287,1322,
1635923742946,384,79,289,1322,
1635923742953,317,79,289,1322,
1635923742961,312,77,288,1324,
1635923742961,357,79,292,1323,
1635923742961,327,78,289,1323,
1635923742962,322,79,289,1323,
1635923742962,280,77,288,1322,
1635923742963,263,78,289,1322,
1635923742963,359,79,289,1322,
1635923742963,391,80,288,1324,
1635923742964,335,78,288,1324,
1635923742964,329,78,288,1324,
1635923742965,313,76,289,1325,
1635923742971,305,77,290,1326,
1635923742978,302,78,289,1324,
1635923742984,355,78,288,1326,
1635923742991,347,78,289,1320,
1635923742998,339,78,288,1331,
1635923743005,266,79,290,1329,
1635923743013,316,78,289,1323,
1635923743020,380,78,289,1323,
1635923743028,301,78,287,1319,
1635923743036,257,78,287,1319,
1635923743036,362,78,286,1327,
1635923743036,280,77,290,1324,
1635923743037,299,78,288,1323,
1635923743037,262,78,289,1323,
1635923743038,318,80,289,1323,
1635923743049,348,79,291,1322,
1635923743060,326,79,287,1323,
1635923743071,292,79,287,1323,
1635923743082,356,77,288,1322,
1635923743094,326,77,288,1323,
1635923743096,328,77,288,1323,
1635923743099,344,78,288,1323,
1635923743101,276,78,289,1322,
1635923743104,348,79,290,1324,
1635923743107,341,77,288,1325,
1635923743107,335,78,291,1323,
1635923743108,267,77,288,1322,
1635923743109,292,78,289,1323,
1635923743110,306,78,290,1325,
1635923743111,365,79,287,1324,
1635923743114,275,79,287,1324,
1635923743117,307,78,289,1325,
1635923743120,283,78,288,1323,
1635923743123,335,77,288,1324,
1635923743126,327,79,290,1318,
1635923743148,329,79,290,1318,
1635923743170,340,79,290,1318,
1635923743193,326,79,290,1318,
1635923743215,347,79,290,1318,
1635923743238,321,79,290,1318,
1635923743238,302,79,290,1318,
1635923743238,360,79,290,1318,
1635923743238,333,79,290,1318,
1635923743238,259,79,290,1318,
1635923743238,301,79,290,1318,
1635923743238,320,79,290,1318,
1635923743238,310,79,290,1318,
1635923743238,359,79,290,1318,
1635923743238,312,79,290,1318,
1635923743238,350,79,290,1318,
1635923743238,342,79,290,1318,
1635923743238,346,79,290,1318,
1635923743238,321,79,290,1318,
1635923743238,297,79,290,1318,
1635923743238,293,79,290,1318,
1635923743238,272,79,290,1318,
1635923743238,279,79,290,1318,
1635923743238,365,79,290,1318,
1635923743238,306,79,290,1318,
1635923743238,285,79,290,1318,
1635923743242,372,79,290,1318,
1635923743247,329,79,290,1318,
1635923743251,359,79,290,1318,
1635923743256,289,79,290,1318,
1635923743261,321,79,290,1318,
1635923743268,254,79,290,1318,
1635923743275,333,79,290,1318,
1635923743283,311,79,290,1318,
1635923743290,325,79,290,1318,
1635923743298,286,79,290,1318,
1635923743298,368,79,290,1318,
1635923743298,316,79,290,1318,
1635923743299,353,79,290,1318,
1635923743299,298,79,290,1318,
1635923743300,314,79,290,1318,
1635923743300,249,79,290,1318,
1635923743300,311,79,290,1318,
1635923743301,276,79,290,1318,
1635923743301,327,79,290,1318,
1635923743302,275,79,290,1318,
1635923743308,341,79,290,1318,
1635923743315,355,79,290,1318,
1635923743322,343,79,290,1318,
1635923743329,331,79,290,1318,
1635923743336,323,79,290,1318,
1635923743336,298,79,290,1318,
1635923743336,297,79,290,1318,
1635923743337,349,79,290,1318,
1635923743337,332,79,290,1318,
1635923743338,297,79,290,1318,
1635923743345,336,79,290,1318,
1635923743352,341,79,290,1318,
1635923743359,284,79,290,1318,
1635923743366,273,79,290,1318,
1635923743374,340,79,290,1318,
1635923743374,250,79,290,1318,
1635923743374,283,79,290,1318,
1635923743374,296,79,290,1318,
1635923743374,297,79,290,1318,
1635923743375,345,79,290,1318,
1635923743382,295,79,290,1318,
1635923743389,318,79,290,1318,
1635923743396,292,79,290,1318,
1635923743403,256,79,290,1318,
1635923743411,312,79,290,1318,
1635923743411,314,79,290,1318,
1635923743411,292,79,290,1318,
1635923743412,248,79,290,1318,
1635923743412,338,79,290,1318,
1635923743413,325,79,290,1318,
1635923743420,283,79,290,1318,
1635923743427,317,79,290,1318,
1635923743434,316,79,290,1318,
1635923743441,333,79,290,1318,
1635923743449,318,79,290,1318,
1635923743449,355,79,290,1318,
1635923743449,305,79,290,1318,
1635923743449,331,79,290,1318,
1635923743449,354,79,290,1318,
1635923743450,360,79,290,1318,
1635923743457,352,78,289,1323,
1635923743464,341,78,289,1323,
1635923743471,344,78,289,1323,
1635923743478,314,78,289,1323,
1635923743486,328,78,289,1323,
1635923743486,341,78,289,1323,
1635923743486,325,78,289,1323,
1635923743487,334,78,289,1323,
1635923743487,310,78,289,1323,
1635923743488,385,78,289,1323,
1635923743497,333,78,289,1323,
1635923743506,298,78,289,1323,
1635923743515,307,78,289,1323,
1635923743524,339,78,289,1323,
1635923743533,335,78,289,1323,
1635923743545,313,78,289,1323,
1635923743558,261,78,289,1323,
1635923743570,344,78,289,1323,
1635923743583,315,78,289,1323,
1635923743596,341,78,289,1323,
1635923743596,314,78,289,1323,
1635923743596,332,78,289,1323,
1635923743596,291,78,289,1323,
1635923743596,341,78,289,1323,
1635923743597,333,78,289,1323,
1635923743597,314,78,289,1323,
1635923743597,346,78,289,1323,
1635923743598,369,78,289,1323,
1635923743598,366,65430,522,1529,
1635923743599,297,65430,522,1529,
1635923743603,347,65430,522,1529,
1635923743607,340,65430,522,1529,
1635923743611,301,65430,522,1529,
1635923743615,347,65430,522,1529,
1635923743620,355,65430,522,1529,
1635923743623,320,65430,522,1529,
1635923743626,330,65430,522,1529,
1635923743629,338,65519,5,1904,
1635923743632,252,65423,144,1649,
1635923743636,321,65423,144,1649,
1635923743636,361,65423,144,1649,
1635923743636,281,65423,144,1649,
1635923743637,382,65423,144,1649,
1635923743637,484,65059,149,1311,
1635923743638,486,65241,26,1464,
1635923743645,680,65395,118,1431,
1635923743652,986,65532,185,1254,
1635923743659,1153,145,174,1329,
1635923743666,1171,243,184,1355,
1635923743673,1340,348,281,1272,
1635923743673,1250,318,271,1542,
1635923743673,1294,362,85,1442,
1635923743674,1228,495,277,1330,
1635923743674,1329,342,321,1601,
1635923743675,1303,189,506,1716,
1635923743682,1156,65530,494,1628,
1635923743689,1267,65335,507,1520,
1635923743696,1169,65285,496,1411,
1635923743703,916,65291,454,1298,
1635923743711,1107,65278,429,1215,
1635923743711,986,65294,345,1170,
1635923743711,1125,65346,195,1271,
1635923743712,929,65395,169,1413,
1635923743712,925,65485,135,1500,
1635923743713,922,23,237,1362,
1635923743720,1108,9,351,1437,
1635923743727,1061,15,411,1503,
1635923743735,877,65527,539,1443,
1635923743742,908,65522,627,1414,
1635923743750,1021,65528,639,1401,
1635923743750,1002,7,587,1404,
1635923743750,984,37,547,1368,
1635923743750,1089,12,601,1151,
1635923743750,1224,121,609,1038,
1635923743750,1266,96,674,1149,
1635923743757,1414,96,674,1149,
1635923743764,1530,32,776,1464,
1635923743771,1619,8,781,1593,
1635923743778,1467,65499,807,1647,
1635923743786,1217,65455,860,1626,
1635923743786,924,65439,914,1584,
1635923743786,565,65439,987,1522,
1635923743787,2096,65453,996,1515,
1635923743787,1559,65456,990,1555,
1635923743788,1163,65456,990,1555,
1635923743795,674,65430,911,1635,
1635923743802,334,65433,867,1638,
1635923743809,1841,65452,845,1610,
1635923743816,1439,65454,822,1569,
1635923743824,1127,65431,796,1503,
1635923743831,616,65423,789,1400,
1635923743838,405,65456,800,1262,
1635923743846,158,65507,808,1134,
1635923743853,1884,17,798,1042,
1635923743861,1635,51,793,957,
1635923743861,1557,41,813,858,
1635923743861,1364,65511,874,737,
1635923743862,1450,65414,923,620,
1635923743862,1337,65479,1030,523,
1635923743863,1208,84,1103,468,
1635923743870,951,229,1139,458,
1635923743877,927,313,1151,480,
1635923743884,871,332,1151,511,
1635923743891,713,332,1151,511,
1635923743899,686,303,1136,592,
1635923743899,656,282,1113,655,
1635923743899,570,247,1054,723,
1635923743899,686,193,998,745,
1635923743899,452,177,961,677,
1635923743900,651,171,891,610,
1635923743907,484,181,861,505,
1635923743914,513,164,859,402,
1635923743922,381,164,859,402,
1635923743929,329,146,956,181,
1635923743937,362,223,1011,123,
1635923743937,514,323,1029,98,
1635923743937,468,383,1014,113,
1635923743937,467,431,788,227,
1635923743937,463,598,664,224,
1635923743938,265,740,694,183,
1635923743945,387,740,694,183,
1635923743953,463,740,694,183,
1635923743961,298,740,694,183,
1635923743969,424,785,651,22,
1635923743977,306,776,657,65507,
1635923743985,453,754,658,65476,
1635923743993,366,733,647,65473,
1635923744001,290,717,630,65477,
1635923744009,472,729,620,65490,
1635923744017,457,753,615,65505,
1635923744017,429,753,615,65505,
1635923744017,422,753,615,65505,
1635923744017,418,681,562,70,
1635923744017,398,631,521,93,
1635923744017,394,591,486,110,
1635923744017,394,565,460,125,
1635923744017,386,543,432,143,
1635923744017,406,533,410,153,
1635923744017,372,543,405,153,
1635923744017,377,569,438,88,
1635923744031,393,569,438,88,
1635923744045,403,569,438,88,
1635923744060,404,521,572,65213,
1635923744074,406,521,572,65213,
1635923744089,402,521,572,65213,
1635923744091,363,521,572,65213,
1635923744094,380,521,572,65213,
1635923744097,399,521,572,65213,
1635923744100,397,521,572,65213,
1635923744103,419,521,572,65213,
1635923744103,409,521,572,65213,
1635923744103,406,839,184,65153,
1635923744103,431,839,184,65153,
1635923744103,402,839,184,65153,
1635923744103,411,839,184,65153,
1635923744103,416,839,184,65153,
1635923744103,418,839,184,65153,
1635923744103,396,839,184,65153,
1635923744103,388,839,184,65153,
1635923744103,392,839,184,65153,
1635923744107,418,839,184,65153,
1635923744111,409,839,184,65153,
1635923744115,411,839,184,65153,
1635923744119,413,839,184,65153,
1635923744124,444,839,184,65153,
1635923744131,458,839,184,65153,
1635923744139,400,839,184,65153,
1635923744146,418,839,184,65153,
1635923744154,450,839,184,65153,
1635923744162,436,839,184,65153,
1635923744164,428,839,184,65153,
1635923744167,401,839,184,65153,
1635923744170,406,839,184,65153,
1635923744173,474,839,184,65153,
1635923744176,413,839,184,65153,
1635923744180,414,839,184,65153,
1635923744185,433,839,184,65153,
1635923744189,369,839,184,65153,
1635923744194,440,839,184,65153,
1635923744199,340,839,184,65153,
1635923744199,421,839,184,65153,
1635923744199,467,839,184,65153,
1635923744199,263,839,184,65153,
1635923744199,327,839,184,65153,
1635923744200,278,839,184,65153,
1635923744207,242,839,184,65153,
1635923744214,297,839,184,65153,
1635923744221,280,839,184,65153,
1635923744228,358,839,184,65153,
1635923744236,418,839,184,65153,
1635923744236,370,839,184,65153,
1635923744237,426,839,184,65153,
1635923744238,251,839,184,65153,
1635923744239,277,839,184,65153,
1635923744240,353,839,184,65153,
1635923744246,485,839,184,65153,
1635923744253,355,839,184,65153,
1635923744260,400,839,184,65153,
1635923744267,329,839,184,65153,
1635923744274,427,839,184,65153,
1635923744274,410,839,184,65153,
1635923744274,517,839,184,65153,
1635923744274,328,839,184,65153,
1635923744274,484,839,184,65153,
1635923744275,432,839,184,65153,
1635923744282,458,839,184,65153,
1635923744289,541,839,184,65153,
1635923744296,568,839,184,65153,
1635923744303,527,839,184,65153,
1635923744311,546,839,184,65153,
1635923744311,585,839,184,65153,
1635923744311,649,839,184,65153,
1635923744312,808,839,184,65153,
1635923744312,922,839,184,65153,
1635923744313,1100,839,184,65153,
1635923744320,1099,366,65424,64877,
1635923744327,1466,366,65424,64877,
1635923744334,1405,366,65424,64877,
1635923744341,1737,366,65424,64877,
1635923744349,1766,366,65424,64877,
1635923744349,1790,366,65424,64877,
1635923744349,1769,366,65424,64877,
1635923744349,1786,366,65424,64877,
1635923744349,1993,366,65424,64877,
1635923744350,1888,366,65424,64877,
1635923744357,2088,366,65424,64877,
1635923744364,2018,366,65424,64877,
1635923744371,1982,366,65424,64877,
1635923744378,2024,366,65424,64877,
1635923744386,1947,366,65424,64877,
1635923744386,1931,366,65424,64877,
1635923744386,1916,366,65424,64877,
1635923744387,1917,366,65424,64877,
1635923744387,1929,366,65424,64877,
1635923744388,1954,393,115,64984,
1635923744395,2081,393,115,64984,
1635923744402,2133,393,115,64984,
1635923744409,1947,393,115,64984,
1635923744416,2000,393,115,64984,
1635923744424,2096,393,115,64984,
1635923744433,1907,393,115,64984,
1635923744442,2014,393,115,64984,
1635923744451,2118,393,115,64984,
1635923744460,1946,425,102,64942,
1635923744470,2069,425,102,64942,
1635923744470,1926,425,102,64942,
1635923744470,2045,425,102,64942,
1635923744470,1930,425,102,64942,
1635923744470,2013,425,102,64942,
1635923744470,2090,425,102,64942,
1635923744475,1979,425,102,64942,
1635923744481,2050,425,102,64942,
1635923744487,2154,430,84,65014,
1635923744493,2017,718,65387,65089,
1635923744499,2080,718,65387,65089,
1635923744499,2146,718,65387,65089,
1635923744499,1976,718,65387,65089,
1635923744500,2082,718,65387,65089,
1635923744500,2126,718,65387,65089,
1635923744501,2185,718,65387,65089,
1635923744508,1997,718,65387,65089,
1635923744515,2066,718,65387,65089,
1635923744522,2118,377,6,64888,
1635923744529,2206,377,6,64888,
1635923744536,2017,377,6,64888,
1635923744536,2045,404,65490,65002,
1635923744536,2073,383,65490,65042,
1635923744537,2140,354,65525,65049,
1635923744537,2184,340,12,65034,
1635923744538,1980,348,17,65007,
1635923744548,2191,368,38,64978,
1635923744558,1972,393,40,64951,
1635923744568,2036,414,49,64943,
1635923744578,2019,419,53,64950,
1635923744589,2067,395,110,64912,
1635923744591,2055,383,200,64840,
1635923744594,2051,387,287,64754,
1635923744597,2091,398,326,64680,
1635923744600,2110,325,330,64695,
1635923744603,2137,389,184,64713,
1635923744607,2134,516,22,64760,
1635923744611,2154,459,48,64812,
1635923744616,2197,439,68,64850,
1635923744620,2002,458,99,64901,
1635923744625,2038,458,119,64961,
1635923744625,2076,417,155,64988,
1635923744625,2133,357,182,64955,
1635923744625,2145,302,217,64894,
1635923744625,2207,265,191,64860,
1635923744625,2015,344,128,64840,
1635923744631,2107,344,128,64840,
1635923744638,2147,495,84,64852,
1635923744645,2189,529,74,64899,
1635923744652,2041,366,59,64997,
1635923744659,2107,263,213,64910,
1635923744659,2150,229,231,64934,
1635923744659,2206,246,161,64999,
1635923744659,2018,273,133,65066,
1635923744659,2088,326,92,65118,
1635923744659,2184,404,51,65148,
1635923744665,2019,473,28,65161,
1635923744672,2044,553,9,65124,
1635923744678,2122,609,10,65044,
1635923744685,2173,619,20,64957,
1635923744692,2219,616,65525,64912,
1635923744692,2263,589,65515,64883,
1635923744692,2064,531,65523,64856,
1635923744692,2126,458,65505,64870,
1635923744692,2154,375,65507,64892,
1635923744692,2228,375,65507,64892,
1635923744699,2257,346,65487,64955,
1635923744706,2249,274,65439,65036,
1635923744713,2244,322,65460,65091,
1635923744720,2250,379,65489,65143,
1635923744727,2064,440,65512,65157,
1635923744733,2134,498,16,65133,
1635923744740,2255,550,66,65083,
1635923744747,2072,526,80,65057,
1635923744754,2135,526,80,65057,
1635923744761,2241,380,77,65026,
1635923744761,2143,376,96,64974,
1635923744761,2274,383,100,64936,
1635923744762,118,378,68,64930,
1635923744762,31,446,65512,64936,
1635923744763,187,655,65387,64885,
1635923744770,64,710,65458,64806,
1635923744777,228,661,65519,64824,
1635923744784,98,661,65519,64824,
1635923744791,215,436,4,65031,
1635923744799,107,438,65467,65169,
1635923744799,213,325,65508,65214,
1635923744799,70,212,10,65207,
1635923744799,168,169,65521,65173,
1635923744799,229,172,65461,65097,
1635923744800,295,218,65393,65045,
1635923744807,95,373,65311,64990,
1635923744814,175,473,65310,64898,
1635923744821,260,473,65310,64898,
1635923744828,290,439,65382,64801,
1635923744836,83,388,65365,64811,
1635923744836,112,454,65267,64701,
1635923744836,166,500,64882,64261,
1635923744837,218,161,64900,64410,
1635923744837,222,29,13,64908,
1635923744838,210,253,27,65016,
1635923744845,227,414,3,65060,
1635923744852,279,414,3,65060,
1635923744859,232,414,3,65060,
1635923744866,249,214,65497,64978,
1635923744874,219,360,65529,64936,
1635923744874,199,385,50,64917,
1635923744874,195,385,50,64917,
1635923744875,168,296,78,64876,
1635923744875,124,261,58,64880,
1635923744876,116,245,25,64893,
1635923744885,68,246,65535,64898,
1635923744895,289,246,65535,64898,
1635923744905,232,287,65533,64918,
1635923744915,217,265,41,64926,
1635923744925,209,257,22,64984,
1635923744925,129,233,11,65035,
1635923744925,123,233,11,65035,
1635923744925,291,184,65523,65035,
1635923744925,277,169,65516,65004,
1635923744925,256,164,65505,64973,
1635923744931,265,164,65505,64973,
1635923744937,268,209,65488,64901,
1635923744943,268,224,65481,64889,
1635923744949,70,224,65481,64889,
1635923744956,159,224,65481,64889,
1635923744956,222,224,65481,64889,
1635923744956,285,224,65481,64889,
1635923744956,91,224,65481,64889,
1635923744956,192,224,65481,64889,
1635923744956,95,224,65481,64889,
1635923744962,151,224,65481,64889,
1635923744968,2049,224,65481,64889,
1635923744975,2074,224,65481,64889,
1635923744981,2023,224,65481,64889,
1635923744988,2216,224,65481,64889,
1635923744988,2175,224,65481,64889,
1635923744988,2089,224,65481,64889,
1635923744988,2118,224,65481,64889,
1635923744988,2195,224,65481,64889,
1635923744988,2022,224,65481,64889,
1635923744998,2053,224,65481,64889,
1635923745008,2155,224,65481,64889,
1635923745018,2214,224,65481,64889,
1635923745028,2029,224,65481,64889,
1635923745038,2087,224,65481,64889,
1635923745048,2176,224,65481,64889,
1635923745058,2193,224,65481,64889,
1635923745068,2089,224,65481,64889,
1635923745078,2237,224,65481,64889,
1635923745089,2217,224,65481,64889,
1635923745092,2082,224,65481,64889,
1635923745095,2203,224,65481,64889,
1635923745098,2174,224,65481,64889,
1635923745101,2186,224,65481,64889,
1635923745105,2149,224,65481,64889,
1635923745105,2031,224,65481,64889,
1635923745105,1906,224,65481,64889,
1635923745105,1870,224,65481,64889,
1635923745105,1748,224,65481,64889,
1635923745105,1912,224,65481,64889,
1635923745108,1833,224,65481,64889,
1635923745111,1822,224,65481,64889,
1635923745114,1950,224,65481,64889,
1635923745117,1840,224,65481,64889,
1635923745120,1882,224,65481,64889,
1635923745126,2009,224,65481,64889,
1635923745132,2137,224,65481,64889,
1635923745138,2256,224,65481,64889,
1635923745144,159,224,65481,64889,
1635923745151,131,224,65481,64889,
1635923745151,251,224,65481,64889,
1635923745151,165,224,65481,64889,
1635923745151,386,224,65481,64889,
1635923745151,387,224,65481,64889,
1635923745151,260,224,65481,64889,
1635923745156,219,224,65481,64889,
1635923745162,439,224,65481,64889,
1635923745167,266,224,65481,64889,
1635923745173,324,224,65481,64889,
1635923745179,384,224,65481,64889,
1635923745179,384,224,65481,64889,
1635923745179,213,224,65481,64889,
1635923745179,435,224,65481,64889,
1635923745179,235,224,65481,64889,
1635923745179,295,224,65481,64889,
1635923745185,298,224,65481,64889,
1635923745191,344,224,65481,64889,
1635923745198,361,224,65481,64889,
1635923745204,349,224,65481,64889,
1635923745211,387,224,65481,64889,
1635923745211,415,224,65481,64889,
1635923745211,453,224,65481,64889,
1635923745212,446,224,65481,64889,
1635923745212,242,224,65481,64889,
1635923745213,259,224,65481,64889,
1635923745220,288,224,65481,64889,
1635923745227,297,224,65481,64889,
1635923745234,300,224,65481,64889,
1635923745241,336,224,65481,64889,
1635923745249,355,224,65481,64889,
1635923745249,360,224,65481,64889,
1635923745249,361,224,65481,64889,
1635923745249,422,224,65481,64889,
1635923745249,406,224,65481,64889,
1635923745250,390,280,37,65105,
1635923745259,406,280,37,65105,
1635923745269,422,280,37,65105,
1635923745279,417,280,37,65105,
1635923745289,426,280,37,65105,
1635923745299,421,280,37,65105,
1635923745299,407,280,37,65105,
1635923745299,426,280,37,65105,
1635923745299,435,280,37,65105,
1635923745299,415,280,37,65105,
1635923745299,423,361,65514,64841,
1635923745305,449,361,65514,64841,
1635923745311,440,361,65514,64841,
1635923745317,251,361,65514,64841,
1635923745323,257,361,65514,64841,
1635923745329,250,361,65514,64841,
1635923745335,256,361,65514,64841,
1635923745341,260,361,65514,64841,
1635923745348,289,361,65514,64841,
1635923745354,264,402,65386,65020,
1635923745361,245,402,65386,65020,
1635923745361,272,402,65386,65020,
1635923745361,273,402,65386,65020,
1635923745362,237,402,65386,65020,
1635923745362,222,402,65386,65020,
1635923745363,453,402,65386,65020,
1635923745370,430,402,65386,65020,
1635923745377,445,402,65386,65020,
1635923745384,431,402,65386,65020,
1635923745391,361,513,65507,65049,
1635923745399,385,513,65507,65049,
1635923745399,367,513,65507,65049,
1635923745399,364,513,65507,65049,
1635923745400,337,376,88,65027,
1635923745400,280,427,161,64969,
1635923745401,293,486,212,64936,
1635923745408,249,526,374,64848,
1635923745415,223,644,587,64748,
1635923745422,431,600,499,64832,
1635923745429,436,492,421,64875,
1635923745436,228,410,377,64861,
1635923745439,304,288,285,64906,
1635923745443,396,224,245,64964,
1635923745446,345,198,214,65069,
1635923745450,225,234,145,65234,
1635923745454,366,329,146,65184,
1635923745460,270,352,131,65235,
1635923745466,341,352,131,65235,
1635923745472,240,343,132,65104,
1635923745478,337,311,95,65105,
1635923745485,417,278,7,65112,
1635923745485,250,269,65506,65041,
1635923745485,334,287,65515,64900,
1635923745485,434,334,43,64726,
1635923745485,468,373,44,64635,
1635923745485,341,318,65528,64559,
1635923745491,343,265,65527,64686,
1635923745498,361,266,65501,64756,
1635923745505,401,275,65479,64776,
1635923745512,422,300,65468,64780,
1635923745519,440,312,65475,64778,
1635923745519,489,313,65496,64783,
1635923745519,289,305,65523,64816,
1635923745519,349,288,16,64861,
1635923745519,370,290,37,64893,
1635923745520,412,291,54,64899,
1635923745532,404,294,52,64895,
1635923745544,418,283,55,64904,
1635923745556,425,272,60,64912,
1635923745568,406,269,59,64906,
1635923745581,359,270,65,64901,
1635923745584,337,265,70,64889,
1635923745588,334,267,74,64876,
1635923745592,349,265,73,64881,
1635923745596,295,258,61,64883,
1635923745600,260,273,48,64872,
1635923745603,306,283,33,64864,
1635923745606,275,300,23,64857,
1635923745609,306,290,14,64874,
1635923745612,282,130,48,65051,
1635923745616,308,230,47,64978,
1635923745616,501,331,10,64909,
1635923745616,314,387,65499,64846,
1635923745616,360,390,65471,64786,
1635923745616,393,362,65459,64765,
1635923745616,436,362,65459,64765,
1635923745617,474,213,65503,64895,
1635923745619,276,191,65527,64938,
1635923745620,307,144,65532,64989,
1635923745622,360,65206,65503,65363,
1635923745624,402,141,65458,65099,
1635923745634,408,326,65485,65011,
1635923745644,458,416,17,64768,
1635923745654,507,415,42,64723,
1635923745664,495,398,65508,64684,
1635923745675,324,311,65449,64666,
1635923745675,369,244,65457,64707,
1635923745675,393,199,65454,64770,
1635923745675,418,150,65440,64851,
1635923745675,443,130,65445,64920,
1635923745675,458,109,65438,65036,
1635923745681,457,142,65465,64995,
1635923745687,524,182,65489,64934,
1635923745693,308,182,65489,64934,
1635923745699,289,182,65489,64934,
1635923745706,352,221,65460,64857,
1635923745706,404,138,65467,64910,
1635923745706,420,94,65491,64926,
1635923745706,453,90,65522,64927,
1635923745706,463,105,3,64919,
1635923745706,512,105,3,64919,
1635923745712,481,118,23,64903,
1635923745718,512,119,18,64912,
1635923745725,504,119,18,64912,
1635923745731,532,128,5,64910,
1635923745738,313,108,25,64914,
1635923745738,331,113,34,64915,
1635923745738,346,118,40,64912,
1635923745738,350,125,58,64896,
1635923745738,368,127,62,64888,
1635923745738,354,127,62,64888,
1635923745745,355,131,46,64867,
1635923745752,396,131,46,64867,
1635923745759,387,125,32,64859,
1635923745766,415,120,22,64851,
1635923745774,454,114,4,64855,
1635923745774,424,112,65507,64861,
1635923745774,460,112,65507,64861,
1635923745775,465,112,65507,64861,
1635923745775,477,112,65507,64861,
1635923745776,500,112,65507,64861,
1635923745783,492,112,65507,64861,
1635923745790,508,112,65507,64861,
1635923745797,526,112,65507,64861,
1635923745804,311,112,65507,64861,
1635923745811,331,112,65507,64861,
1635923745811,353,112,65507,64861,
1635923745811,373,112,65507,64861,
1635923745812,391,112,65507,64861,
1635923745812,409,112,65507,64861,
1635923745813,421,112,65507,64861,
1635923745822,421,112,65507,64861,
1635923745832,421,112,65507,64861,
1635923745841,497,112,65507,64861,
1635923745851,479,112,65507,64861,
1635923745861,503,112,65507,64861,
1635923745861,515,112,65507,64861,
1635923745861,524,112,65507,64861,
1635923745861,332,112,65507,64861,
1635923745861,325,112,65507,64861,
1635923745861,367,112,65507,64861,
1635923745867,365,112,65507,64861,
1635923745873,402,112,65507,64861,
1635923745880,443,112,65507,64861,
1635923745886,434,112,65507,64861,
1635923745893,468,112,65507,64861,
1635923745899,448,112,65507,64861,
1635923745905,477,112,65507,64861,
1635923745912,473,112,65507,64861,
1635923745918,507,66,149,64923,
1635923745925,495,66,149,64923,
1635923745925,512,66,149,64923,
1635923745925,520,66,149,64923,
1635923745925,514,66,149,64923,
1635923745925,501,66,149,64923,
1635923745925,324,66,149,64923,
1635923745932,548,66,149,64923,
1635923745939,320,66,149,64923,
1635923745946,343,66,149,64923,
1635923745953,344,66,149,64923,
1635923745961,361,66,149,64923,
1635923745961,394,66,149,64923,
1635923745961,370,66,149,64923,
1635923745962,333,66,149,64923,
1635923745962,376,66,149,64923,
1635923745963,336,66,149,64923,
1635923745971,396,66,149,64923,
1635923745979,376,66,149,64923,
1635923745988,418,66,149,64923,
1635923745996,382,66,149,64923,
1635923746005,405,66,149,64923,
1635923746005,402,66,149,64923,
1635923746005,392,66,149,64923,
1635923746005,419,66,149,64923,
1635923746005,410,66,149,64923,
1635923746005,434,66,149,64923,
1635923746025,391,66,149,64923,
1635923746046,412,66,149,64923,
1635923746067,382,66,149,64923,
1635923746088,400,66,149,64923,
1635923746109,394,66,149,64923,
1635923746109,382,66,149,64923,
1635923746109,357,66,149,64923,
1635923746109,358,66,149,64923,
1635923746109,349,66,149,64923,
1635923746112,553,66,149,64923,
1635923746115,331,66,149,64923,
1635923746119,352,66,149,64923,
1635923746122,348,66,149,64923,
1635923746126,375,66,149,64923,
1635923746126,366,66,149,64923,
1635923746126,356,66,149,64923,
1635923746126,358,66,149,64923,
1635923746126,384,66,149,64923,
1635923746126,350,66,149,64923,
1635923746126,367,66,149,64923,
1635923746126,398,66,149,64923,
1635923746126,386,66,149,64923,
1635923746126,376,66,149,64923,
1635923746127,391,66,149,64923,
1635923746127,382,66,149,64923,
1635923746127,382,66,149,64923,
1635923746127,363,66,149,64923,
1635923746127,395,66,149,64923,
1635923746127,371,66,149,64923,
1635923746134,374,191,61,64894,
1635923746141,367,191,61,64894,
1635923746149,356,191,61,64894,
1635923746156,393,191,61,64894,
1635923746164,337,191,61,64894,
1635923746164,340,191,61,64894,
1635923746164,358,191,61,64894,
1635923746164,379,191,61,64894,
1635923746164,389,191,61,64894,
1635923746165,377,143,117,64829,
1635923746169,381,143,117,64829,
1635923746173,403,143,117,64829,
1635923746177,410,143,117,64829,
1635923746181,390,143,117,64829,
1635923746186,446,143,117,64829,
1635923746193,430,143,117,64829,
1635923746200,429,143,117,64829,
1635923746208,471,143,117,64829,
1635923746215,479,136,115,64846,
1635923746223,496,136,115,64846,
1635923746226,496,136,115,64846,
1635923746229,509,136,115,64846,
1635923746233,512,136,115,64846,
1635923746236,498,136,115,64846,
1635923746240,545,136,115,64846,
1635923746246,545,136,115,64846,
1635923746252,332,136,115,64846,
1635923746258,375,136,115,64846,
1635923746264,379,131,138,64868,
1635923746270,368,135,137,64872,
1635923746270,414,135,130,64869,
1635923746270,409,137,124,64869,
1635923746270,399,138,118,64864,
1635923746270,449,144,119,64867,
1635923746270,460,148,119,64874,
1635923746276,415,150,126,64879,
1635923746282,471,150,135,64884,
1635923746288,458,161,141,64884,
1635923746294,482,162,135,64889,
1635923746300,458,160,130,64884,
1635923746300,472,160,124,64873,
1635923746300,504,164,117,64868,
1635923746300,494,169,109,64861,
1635923746300,519,171,98,64855,
1635923746301,500,169,94,64852,
1635923746308,491,173,94,64858,
1635923746315,524,171,96,64873,
1635923746322,487,171,96,64873,
1635923746329,539,164,104,64887,
1635923746336,528,166,113,64890,
1635923746336,552,179,123,64901,
1635923746336,537,179,140,64903,
1635923746337,528,175,143,64904,
1635923746337,337,169,137,64900,
1635923746338,554,170,132,64899,
1635923746345,339,164,119,64886,
1635923746352,336,157,118,64877,
1635923746359,551,157,113,64861,
1635923746366,375,158,102,64861,
1635923746373,357,42,163,64875,
1635923746389,335,185,75,64835,
1635923746406,391,263,10,64833,
1635923746423,388,207,33,64838,
1635923746440,403,153,58,64814,
1635923746457,379,146,68,64814,
1635923746457,411,156,62,64819,
1635923746457,409,161,70,64818,
1635923746457,448,158,78,64828,
1635923746457,427,146,99,64837,
1635923746457,449,141,117,64853,
1635923746457,471,66,168,64933,
1635923746457,490,147,167,64880,
1635923746457,464,168,166,64884,
1635923746457,463,155,175,64873,
1635923746457,499,121,181,64878,
1635923746457,507,65173,212,65170,
1635923746457,508,50,207,64816,
1635923746457,485,284,128,64938,
1635923746457,537,322,231,64908,
1635923746457,519,320,238,64810,
1635923746457,532,254,199,64799,
1635923746457,555,145,187,64813,
1635923746457,575,108,153,64847,
1635923746457,570,122,134,64878,
1635923746457,572,122,134,64878,
1635923746462,567,151,114,64875,
1635923746468,579,146,109,64874,
1635923746474,357,119,97,64952,
1635923746480,348,156,110,64853,
1635923746486,347,178,95,64844,
1635923746486,376,179,87,64859,
1635923746486,360,172,98,64872,
1635923746487,375,173,109,64887,
1635923746487,386,173,109,64887,
1635923746488,385,179,119,64888,
1635923746497,376,190,118,64881,
1635923746506,411,163,154,64878,
1635923746515,410,138,166,64887,
1635923746524,362,132,161,64881,
1635923746534,418,146,155,64880,
1635923746545,417,162,151,64871,
1635923746556,419,162,157,64851,
1635923746567,447,155,172,64828,
1635923746578,461,155,172,64828,
1635923746589,468,151,180,64825,
1635923746589,506,153,187,64837,
1635923746589,493,171,183,64842,
1635923746589,502,170,185,64839,
1635923746589,545,156,190,64843,
1635923746589,512,144,199,64844,
1635923746593,537,145,204,64860,
1635923746597,541,145,201,64863,
1635923746601,536,143,194,64871,
1635923746605,573,142,194,64874,
1635923746610,549,139,196,64869,
1635923746612,566,136,197,64870,
1635923746615,565,140,201,64871,
1635923746618,538,152,204,64873,
1635923746621,585,150,211,64876,
1635923746624,526,147,207,64863,
1635923746627,351,140,202,64858,
1635923746630,347,140,202,64858,
1635923746634,581,140,202,64858,
1635923746637,570,148,206,64880,
1635923746641,371,148,206,64880,
1635923746641,586,150,198,64889,
1635923746641,348,149,194,64882,
1635923746641,391,154,190,64868,
1635923746641,412,155,185,64860,
1635923746641,381,155,182,64858,
1635923746647,395,155,182,64858,
1635923746654,381,155,182,64858,
1635923746660,387,155,182,64858,
1635923746667,346,155,182,64858,
1635923746674,547,155,182,64858,
1635923746674,484,155,182,64858,
1635923746674,404,155,182,64858,
1635923746674,385,155,182,64858,
1635923746674,376,155,182,64858,
1635923746675,519,155,182,64858,
1635923746682,486,155,182,64858,
1635923746689,428,155,182,64858,
1635923746696,406,155,182,64858,
1635923746703,345,155,182,64858,
1635923746711,566,155,182,64858,
1635923746711,570,155,182,64858,
1635923746711,398,155,182,64858,
1635923746712,391,155,182,64858,
1635923746712,400,155,182,64858,
1635923746713,419,155,182,64858,
1635923746722,375,155,182,64858,
1635923746731,354,155,182,64858,
1635923746741,376,155,182,64858,
1635923746750,376,155,182,64858,
1635923746760,405,155,182,64858,
1635923746760,424,155,182,64858,
1635923746760,398,155,182,64858,
1635923746760,405,155,182,64858,
1635923746760,391,155,182,64858,
1635923746760,428,155,182,64858,
1635923746766,448,155,182,64858,
1635923746772,470,155,182,64858,
1635923746778,474,155,182,64858,
1635923746784,500,155,182,64858,
1635923746791,523,155,182,64858,
1635923746797,542,155,182,64858,
1635923746804,554,155,182,64858,
1635923746810,519,155,182,64858,
1635923746817,528,155,182,64858,
1635923746824,352,155,182,64858,
1635923746824,582,155,182,64858,
1635923746824,364,155,182,64858,
1635923746824,440,155,182,64858,
1635923746824,493,155,182,64858,
1635923746825,532,155,182,64858,
1635923746832,535,155,182,64858,
1635923746839,578,155,182,64858,
1635923746847,362,155,182,64858,
1635923746854,378,155,182,64858,
1635923746862,423,155,182,64858,
1635923746865,393,155,182,64858,
1635923746868,434,155,182,64858,
1635923746872,415,155,182,64858,
1635923746875,446,155,182,64858,
1635923746879,457,155,182,64858,
1635923746885,440,155,182,64858,
1635923746891,445,155,182,64858,
1635923746897,446,155,182,64858,
1635923746903,435,155,182,64858,
1635923746909,458,155,182,64858,
1635923746915,493,155,182,64858,
1635923746921,462,155,182,64858,
1635923746928,487,155,182,64858,
1635923746934,507,155,182,64858,
1635923746941,540,155,182,64858,
1635923746941,574,155,182,64858,
1635923746941,562,155,182,64858,
1635923746941,585,155,182,64858,
1635923746941,597,155,182,64858,
1635923746941,367,155,182,64858,
1635923746941,414,155,182,64858,
1635923746941,447,155,182,64858,
1635923746941,415,155,182,64858,
1635923746941,408,155,182,64858,
1635923746941,479,155,182,64858,
1635923746947,484,155,182,64858,
1635923746954,516,155,182,64858,
1635923746960,532,155,182,64858,
1635923746967,526,155,182,64858,
1635923746974,531,155,182,64858,
1635923746974,552,155,182,64858,
1635923746974,585,155,182,64858,
1635923746974,575,155,182,64858,
1635923746974,574,155,182,64858,
1635923746975,586,155,182,64858,
1635923746982,572,155,182,64858,
1635923746989,588,155,182,64858,
1635923746996,580,155,182,64858,
1635923747003,581,155,182,64858,
1635923747011,580,155,182,64858,
1635923747011,558,155,182,64858,
1635923747011,568,155,182,64858,
1635923747012,543,155,182,64858,
1635923747012,553,155,182,64858,
1635923747013,577,155,182,64858,
1635923747020,535,132,123,64866,
1635923747027,560,132,123,64866,
1635923747034,574,132,123,64866,
1635923747041,537,132,123,64866,
1635923747049,555,132,123,64866,
1635923747060,582,132,123,64866,
1635923747071,597,132,123,64866,
1635923747082,534,132,123,64866,
1635923747093,538,132,123,64866,
1635923747105,523,132,123,64866,
1635923747105,566,132,123,64866,
1635923747105,503,132,123,64866,
1635923747105,551,132,123,64866,
1635923747105,525,132,123,64866,
1635923747106,549,132,123,64866,
1635923747110,537,132,123,64866,
1635923747114,503,132,123,64866,
1635923747119,495,132,123,64866,
1635923747123,514,137,159,64871,
1635923747128,548,137,159,64871,
1635923747131,528,137,159,64871,
1635923747134,524,137,159,64871,
1635923747137,538,137,159,64871,
1635923747140,525,137,159,64871,
1635923747143,526,137,159,64871,
1635923747146,530,137,159,64871,
1635923747150,548,137,159,64871,
1635923747153,526,141,130,64871,
1635923747157,530,139,126,64865,
1635923747161,535,139,126,64865,
1635923747161,534,139,126,64865,
1635923747161,544,139,126,64865,
1635923747162,533,139,126,64865,
1635923747162,537,139,126,64865,
1635923747163,555,139,126,64865,
1635923747170,563,139,126,64865,
1635923747177,578,133,125,64867,
1635923747184,578,132,133,64866,
1635923747191,585,131,136,64866,
1635923747199,564,129,139,64864,
1635923747199,597,125,142,64862,
1635923747199,563,126,141,64862,
1635923747199,602,128,142,64859,
1635923747199,362,130,143,64859,
1635923747200,364,130,144,64861,
1635923747207,382,128,142,64861,
1635923747214,375,127,138,64863,
1635923747221,365,130,136,64863,
1635923747228,377,131,137,64866,
1635923747236,403,130,134,64862,
1635923747239,391,129,130,64858,
1635923747243,381,130,130,64863,
1635923747247,601,130,130,64864,
1635923747251,390,131,130,64862,
1635923747255,403,130,127,64861,
1635923747260,394,128,132,64861,
1635923747266,398,130,134,64860,
1635923747272,433,133,141,64860,
1635923747278,449,132,144,64861,
1635923747284,434,134,142,64864,
1635923747284,439,132,142,64872,
1635923747284,435,128,146,64876,
1635923747284,444,132,150,64881,
1635923747284,461,135,153,64885,
1635923747284,447,137,155,64887,
1635923747290,444,138,158,64887,
1635923747296,417,137,158,64886,
1635923747302,453,136,162,64880,
1635923747308,450,136,159,64875,
1635923747314,383,135,155,64872,
1635923747314,403,134,151,64870,
1635923747314,389,132,147,64866,
1635923747314,396,135,142,64861,
1635923747314,407,140,138,64858,
1635923747314,415,144,134,64858,
1635923747321,421,146,131,64857,
1635923747328,425,147,130,64857,
1635923747335,428,147,128,64859,
1635923747342,437,147,129,64861,
1635923747349,377,146,127,64866,
1635923747366,432,146,130,64869,
1635923747384,420,145,130,64869,
1635923747402,465,143,129,64869,
1635923747420,433,141,129,64866,
1635923747438,457,140,129,64860,
1635923747444,450,143,132,64851,
1635923747450,442,144,134,64845,
1635923747456,436,144,135,64842,
1635923747462,456,145,138,64841,
1635923747469,476,142,138,64846,
1635923747469,461,141,140,64860,
1635923747469,479,142,142,64873,
1635923747469,478,142,148,64887,
1635923747469,458,142,148,64887,
1635923747469,474,137,150,64891,
1635923747475,522,138,150,64887,
1635923747481,530,138,148,64883,
1635923747487,512,136,149,64880,
1635923747493,536,133,146,64875,
1635923747499,536,132,142,64873,
1635923747499,520,130,143,64871,
1635923747499,535,132,144,64870,
1635923747499,529,136,148,64871,
1635923747499,510,136,148,64871,
1635923747500,531,132,153,64869,
1635923747500,561,116,156,64869,
1635923747500,548,135,144,64863,
1635923747501,538,140,143,64861,
1635923747501,571,132,145,64860,
1635923747502,575,127,149,64864,
1635923747502,547,123,149,64862,
1635923747502,585,96,186,64828,
1635923747503,562,96,186,64828,
1635923747503,565,96,186,64828,
1635923747504,601,227,96,64941,
1635923747504,583,141,139,64928,
1635923747504,374,103,130,64892,
1635923747505,579,115,137,64855,
1635923747505,572,146,152,64844,
1635923747506,605,146,152,64844,
1635923747513,371,149,144,64857,
1635923747520,593,138,132,64867,
1635923747527,387,138,132,64867,
1635923747534,603,139,133,64875,
1635923747541,608,144,140,64872,
1635923747541,391,145,146,64865,
1635923747541,402,143,150,64858,
1635923747541,403,144,151,64858,
1635923747541,382,143,152,64864,
1635923747541,397,143,152,64864,
1635923747553,397,143,152,64864,
1635923747565,393,143,152,64864,
1635923747577,400,143,152,64864,
1635923747589,428,143,152,64864,
1635923747601,409,143,152,64864,
1635923747601,413,143,152,64864,
1635923747601,451,143,152,64864,
1635923747601,397,143,152,64864,
1635923747601,412,143,152,64864,
1635923747601,401,143,152,64864,
1635923747605,439,143,152,64864,
1635923747610,419,143,152,64864,
1635923747614,451,143,152,64864,
1635923747619,433,143,152,64864,
1635923747624,459,143,152,64864,
1635923747627,475,143,152,64864,
1635923747630,443,143,152,64864,
1635923747634,465,143,152,64864,
1635923747637,483,143,152,64864,
1635923747641,477,143,152,64864,
1635923747644,478,143,152,64864,
1635923747647,500,143,152,64864,
1635923747651,465,143,152,64864,
1635923747654,506,143,152,64864,
1635923747658,496,143,152,64864,
1635923747658,483,143,152,64864,
1635923747658,526,143,152,64864,
1635923747658,532,143,152,64864,
1635923747658,529,143,152,64864,
1635923747658,530,143,152,64864,
1635923747664,537,143,152,64864,
1635923747670,516,143,152,64864,
1635923747676,538,143,152,64864,
1635923747682,547,143,152,64864,
1635923747688,526,143,152,64864,
1635923747695,509,143,152,64864,
1635923747702,538,143,152,64864,
1635923747709,561,143,152,64864,
1635923747716,565,143,152,64864,
1635923747724,525,143,152,64864,
1635923747724,531,143,152,64864,
1635923747724,572,143,152,64864,
1635923747724,572,143,152,64864,
1635923747724,556,143,152,64864,
1635923747725,585,143,152,64864,
1635923747732,579,143,152,64864,
1635923747739,579,143,152,64864,
1635923747747,555,143,152,64864,
1635923747754,566,143,152,64864,
1635923747762,618,143,152,64864,
1635923747765,574,143,152,64864,
1635923747769,598,143,152,64864,
1635923747773,613,143,152,64864,
1635923747777,581,143,152,64864,
1635923747781,619,143,152,64864,
1635923747786,602,143,152,64864,
1635923747792,386,143,152,64864,
1635923747798,587,143,152,64864,
1635923747804,405,143,152,64864,
1635923747810,398,143,152,64864,
1635923747810,406,143,152,64864,
1635923747810,410,143,152,64864,
1635923747810,392,143,152,64864,
1635923747810,412,143,152,64864,
1635923747810,615,143,152,64864,
1635923747816,395,143,152,64864,
1635923747822,396,143,152,64864,
1635923747828,399,143,152,64864,
1635923747834,376,143,152,64864,
1635923747840,445,143,152,64864,
1635923747840,416,143,152,64864,
1635923747840,405,143,152,64864,
1635923747840,441,143,152,64864,
1635923747840,437,143,152,64864,
1635923747840,489,143,152,64864,
1635923747846,417,143,152,64864,
1635923747853,467,140,144,64866,
1635923747860,455,140,144,64866,
1635923747867,431,140,144,64866,
1635923747874,466,140,144,64866,
1635923747874,479,140,144,64866,
1635923747874,467,140,144,64866,
1635923747874,467,140,144,64866,
1635923747874,456,140,144,64866,
1635923747875,452,140,144,64866,
1635923747885,468,140,144,64866,
1635923747895,487,140,144,64866,
1635923747906,467,140,144,64866,
1635923747916,514,140,144,64866,
1635923747927,534,140,144,64866,
1635923747927,475,140,144,64866,
1635923747927,485,140,144,64866,
1635923747927,496,140,144,64866,
1635923747927,488,140,144,64866,
1635923747927,533,143,148,64866,
1635923747932,509,139,150,64865,
1635923747938,525,139,150,64865,
1635923747943,517,139,150,64865,
1635923747949,498,139,150,64865,
1635923747955,496,139,150,64865,
1635923747955,503,139,150,64865,
1635923747955,532,139,150,64865,
1635923747955,497,139,150,64865,
1635923747955,476,139,150,64865,
1635923747955,455,145,143,64864,
1635923747961,434,145,143,64864,
1635923747967,484,145,143,64864,
1635923747973,459,145,143,64864,
1635923747979,452,145,143,64864,
1635923747986,406,145,143,64864,
1635923747995,451,145,143,64864,
1635923748005,440,145,143,64864,
1635923748015,423,145,143,64864,
1635923748025,393,144,142,64869,
1635923748035,429,144,142,64869,
1635923748046,427,144,142,64869,
1635923748057,442,144,142,64869,
1635923748068,414,144,142,64869,
1635923748079,415,144,142,64869,
1635923748091,426,144,142,64869,
1635923748094,427,144,142,64869,
1635923748097,417,144,142,64869,
1635923748101,440,144,147,64866,
1635923748104,424,144,147,64865,
1635923748108,467,144,147,64865,
1635923748108,462,144,147,64865,
1635923748108,480,144,146,64866,
1635923748108,472,143,148,64866,
1635923748108,447,145,146,64867,
1635923748108,506,145,145,64868,
1635923748111,492,144,147,64867,
1635923748114,491,144,146,64868,
1635923748118,509,143,144,64864,
1635923748121,508,144,142,64863,
1635923748125,495,145,142,64862,
1635923748128,518,144,141,64863,
1635923748131,507,143,140,64864,
1635923748135,536,144,139,64870,
1635923748138,574,144,140,64871,
1635923748142,529,144,141,64871,
1635923748142,504,144,143,64870,
1635923748142,513,143,146,64867,
1635923748142,536,144,147,64867,
1635923748142,550,144,145,64861,
1635923748142,545,140,144,64864,
1635923748142,585,144,145,64862,
1635923748142,575,147,144,64866,
1635923748142,547,146,144,64867,
1635923748142,553,143,144,64869,
1635923748142,522,144,142,64868,
1635923748148,600,143,142,64870,
1635923748154,556,145,142,64867,
1635923748161,590,145,139,64865,
1635923748167,599,145,142,64864,
1635923748174,565,143,144,64862,
1635923748183,599,145,144,64860,
1635923748192,610,147,142,64862,
1635923748201,611,144,146,64866,
1635923748210,591,146,146,64867,
1635923748220,601,147,147,64870,
1635923748220,609,147,146,64871,
1635923748220,591,146,149,64870,
1635923748220,620,146,148,64870,
1635923748220,606,147,147,64865,
1635923748220,627,146,147,64864,
1635923748220,600,146,147,64864,
1635923748220,390,145,147,64864,
1635923748220,599,144,148,64865,
1635923748220,407,142,148,64869,
1635923748220,394,142,148,64870,
1635923748225,618,143,146,64869,
1635923748231,392,145,144,64869,
1635923748236,393,145,145,64866,
1635923748242,390,143,144,64864,
1635923748248,421,145,142,64866,
1635923748255,421,148,143,64867,
1635923748263,402,146,145,64865,
1635923748270,402,148,146,64865,
1635923748278,429,146,144,64869,
1635923748286,401,146,146,64870,
1635923748290,440,145,144,64871,
1635923748294,387,144,144,64870,
1635923748298,419,147,142,64869,
1635923748302,418,147,142,64866,
1635923748306,385,146,143,64864,
1635923748306,427,146,142,64864,
1635923748306,404,146,143,64865,
1635923748306,425,148,141,64867,
1635923748306,445,148,141,64867,
1635923748306,467,148,141,64867,
1635923748311,438,148,145,64867,
1635923748316,415,146,142,64867,
1635923748322,451,147,145,64864,
1635923748327,408,146,143,64865,
1635923748333,457,146,142,64864,
1635923748338,451,146,145,64863,
1635923748344,475,148,145,64864,
1635923748350,443,148,145,64864,
1635923748356,467,146,144,64865,
1635923748362,459,147,145,64866,
1635923748362,461,145,147,64867,
1635923748362,479,146,151,64866,
1635923748362,457,144,148,64869,
1635923748362,474,146,147,64869,
1635923748363,449,143,148,64870,
1635923748370,473,143,145,64869,
1635923748377,480,143,143,64868,
1635923748384,467,143,143,64868,
1635923748391,501,144,142,64869,
1635923748399,479,144,138,64868,
1635923748399,467,147,137,64865,
1635923748399,482,147,140,64861,
1635923748399,484,146,143,64860,
1635923748399,492,146,146,64860,
1635923748400,488,146,149,64861,
1635923748409,501,145,150,64863,
1635923748418,514,145,150,64863,
1635923748428,495,149,147,64870,
1635923748437,497,147,147,64870,
1635923748447,497,147,147,64870,
1635923748447,480,145,147,64868,
1635923748447,500,146,146,64868,
1635923748447,520,147,149,64865,
1635923748447,491,147,150,64864,
1635923748447,535,149,148,64864,
1635923748459,516,148,150,64867,
1635923748472,511,148,150,64867,
1635923748484,531,146,142,64866,
1635923748497,508,145,142,64868,
1635923748510,503,145,142,64868,
1635923748510,553,145,142,64868,
1635923748510,535,145,142,64868,
1635923748511,520,145,142,64868,
1635923748511,513,145,142,64868,
1635923748512,538,145,142,64868,
1635923748512,545,145,142,64868,
1635923748512,556,145,142,64868,
1635923748513,574,145,142,64868,
1635923748513,545,145,142,64868,
1635923748514,540,145,142,64868,
1635923748514,580,145,142,64868,
1635923748514,565,145,142,64868,
1635923748515,548,145,142,64868,
1635923748515,554,145,142,64868,
1635923748516,556,145,142,64868,
1635923748534,559,145,142,64868,
1635923748553,556,145,142,64868,
1635923748572,566,145,142,64868,
1635923748591,579,145,142,64868,
1635923748610,565,145,142,64868,
1635923748614,555,145,142,64868,
1635923748618,592,145,142,64868,
1635923748622,596,145,142,64868,
1635923748626,566,145,142,64868,
1635923748631,543,145,142,64868,
1635923748631,573,145,142,64868,
1635923748631,567,145,142,64868,
1635923748631,587,145,142,64868,
1635923748631,594,145,142,64868,
1635923748631,572,145,142,64868,
1635923748634,593,145,142,64868,
1635923748638,594,145,142,64868,
1635923748642,594,145,142,64868,
1635923748646,612,145,142,64868,
1635923748650,562,145,142,64868,
1635923748650,583,145,142,64868,
1635923748650,619,145,142,64868,
1635923748650,593,145,142,64868,
1635923748650,609,145,142,64868,
1635923748650,611,145,142,64868,
1635923748661,600,145,142,64868,
1635923748672,593,145,142,64868,
1635923748683,628,145,142,64868,
1635923748694,589,145,142,64868,
1635923748705,609,145,142,64868,
1635923748708,589,145,142,64868,
1635923748712,568,145,142,64868,
1635923748715,554,145,142,64868,
1635923748719,568,145,142,64868,
1635923748723,547,145,142,64868,
1635923748723,550,145,142,64868,
1635923748723,518,145,142,64868,
1635923748723,510,145,142,64868,
1635923748723,492,145,142,64868,
1635923748723,467,145,142,64868,
1635923748723,480,145,142,64868,
1635923748723,449,145,142,64868,
1635923748723,461,145,142,64868,
1635923748723,479,145,142,64868,
1635923748723,466,145,142,64868,
1635923748727,448,145,142,64868,
1635923748732,451,145,142,64868,
1635923748737,444,145,142,64868,
1635923748742,439,145,142,64868,
1635923748747,432,145,142,64868,
1635923748747,443,145,142,64868,
1635923748747,442,145,142,64868,
1635923748747,473,145,142,64868,
1635923748747,480,145,142,64868,
1635923748747,474,145,142,64868,
1635923748752,484,145,142,64868,
1635923748758,484,145,142,64868,
1635923748764,497,145,142,64868,
1635923748770,507,145,142,64868,
1635923748776,501,145,142,64868,
1635923748783,486,145,142,64868,
1635923748790,517,145,142,64868,
1635923748797,500,145,142,64868,
1635923748804,501,145,142,64868,
1635923748811,523,145,142,64868,
1635923748811,514,149,142,64867,
1635923748811,521,149,142,64867,
1635923748812,530,149,142,64867,
1635923748812,544,149,142,64867,
1635923748813,535,149,142,64867,
1635923748813,528,149,142,64867,
1635923748813,548,149,142,64867,
1635923748814,550,149,142,64867,
1635923748814,557,149,142,64867,
1635923748815,565,149,142,64867,
1635923748824,569,149,142,64867,
1635923748833,541,149,142,64867,
1635923748843,578,149,142,64867,
1635923748852,580,149,142,64867,
1635923748862,531,149,142,64867,
1635923748862,565,149,142,64867,
1635923748862,578,149,142,64867,
1635923748862,567,149,142,64867,
1635923748862,587,149,142,64867,
1635923748862,604,148,147,64865,
1635923748868,608,148,147,64865,
1635923748874,610,148,147,64865,
1635923748880,594,148,147,64865,
1635923748886,606,148,147,64865,
1635923748892,579,148,147,64865,
1635923748898,586,148,147,64865,
1635923748904,598,148,147,64865,
1635923748911,610,148,147,64865,
1635923748917,616,148,142,64867,
1635923748924,579,148,142,64867,
1635923748924,631,148,142,64867,
1635923748924,606,148,142,64867,
1635923748924,585,148,142,64867,
1635923748924,399,148,142,64867,
1635923748925,632,148,142,64867,
1635923748936,631,148,142,64867,
1635923748947,618,148,142,64867,
1635923748958,599,150,149,64869,
1635923748969,633,153,148,64870,
1635923748981,619,151,148,64866,
1635923748981,406,147,147,64863,
1635923748981,623,148,148,64864,
1635923748981,392,149,145,64865,
1635923748981,411,151,145,64865,
1635923748981,633,149,144,64866,
1635923748987,421,147,144,64868,
1635923748993,408,149,143,64867,
1635923748999,627,148,143,64871,
1635923749005,612,149,141,64869,
1635923749011,416,148,142,64866,
1635923749011,416,149,142,64864,
1635923749011,416,150,147,64863,
1635923749011,400,148,149,64865,
1635923749011,429,146,150,64868,
1635923749011,415,146,151,64870,
1635923749036,622,145,151,64869,
1635923749062,419,147,151,64869,
1635923749087,637,146,149,64866,
1635923749113,410,146,147,64865,
1635923749139,426,146,146,64862,
1635923749142,441,148,142,64864,
1635923749145,429,149,144,64863,
1635923749148,423,148,144,64861,
1635923749151,430,147,143,64864,
1635923749154,411,149,142,64867,
1635923749154,443,151,146,64867,
1635923749154,453,150,145,64868,
1635923749154,434,152,146,64867,
1635923749154,430,151,148,64866,
1635923749154,431,149,148,64863,
1635923749154,444,149,148,64865,
1635923749154,439,147,146,64864,
1635923749154,431,150,146,64865,
1635923749154,478,150,148,64867,
1635923749154,442,149,145,64869,
1635923749154,470,149,145,64869,
1635923749154,487,147,144,64871,
1635923749154,453,147,144,64871,
1635923749154,484,146,145,64869,
1635923749154,472,145,144,64868,
1635923749154,465,146,143,64866,
1635923749154,486,147,144,64865,
1635923749154,476,147,145,64865,
1635923749154,489,146,146,64865,
1635923749154,475,146,149,64867,
1635923749157,500,146,149,64869,
1635923749160,489,148,148,64868,
1635923749164,505,148,151,64868,
1635923749167,501,146,152,64869,
1635923749171,514,149,150,64867,
1635923749174,470,148,152,64866,
1635923749177,522,146,150,64865,
1635923749180,467,147,149,64865,
1635923749183,537,147,149,64865,
1635923749187,513,149,148,64865,
1635923749187,486,149,147,64865,
1635923749187,494,148,146,64866,
1635923749187,532,149,143,64867,
1635923749187,498,151,142,64866,
1635923749188,552,150,142,64866,
1635923749188,488,150,142,64865,
1635923749188,551,151,141,64866,
1635923749189,533,149,142,64867,
1635923749189,512,149,142,64867,
1635923749190,517,150,145,64866,
1635923749200,538,150,148,64867,
1635923749210,545,148,147,64866,
1635923749220,531,148,146,64867,
1635923749230,548,145,147,64865,
1635923749241,547,147,147,64866,
1635923749246,511,148,146,64865,
1635923749252,555,148,146,64866,
1635923749257,558,148,146,64866,
1635923749263,556,147,150,64866,
1635923749269,552,148,151,64868,
1635923749269,548,148,152,64867,
1635923749269,577,147,151,64867,
1635923749269,564,147,151,64867,
1635923749269,598,148,147,64864,
1635923749269,554,150,146,64864,
1635923749275,567,147,144,64865,
1635923749281,572,147,144,64865,
1635923749287,551,147,144,64865,
1635923749293,573,148,145,64870,
1635923749299,574,149,145,64870,
1635923749299,573,147,144,64868,
1635923749299,564,147,144,64867,
1635923749299,585,147,144,64867,
1635923749299,557,149,145,64864,
1635923749300,572,149,144,64864,
1635923749307,582,146,143,64862,
1635923749314,579,146,143,64862,
1635923749321,565,149,144,64864,
1635923749328,603,149,147,64865,
1635923749336,582,149,147,64865,
1635923749336,600,149,147,64865,
1635923749336,573,149,147,64865,
1635923749337,584,149,147,64865,
1635923749337,583,149,147,64865,
1635923749338,582,149,147,64865,
1635923749347,591,149,147,64865,
1635923749357,553,149,147,64865,
1635923749366,613,149,147,64865,
1635923749376,593,149,147,64865,
1635923749386,608,149,147,64865,
1635923749386,593,149,147,64865,
1635923749386,609,149,147,64865,
1635923749386,539,149,147,64865,
1635923749386,611,149,147,64865,
1635923749386,590,149,147,64865,
1635923749391,601,149,147,64865,
1635923749397,550,149,147,64865,
1635923749403,585,149,147,64865,
1635923749409,586,149,147,64865,
1635923749415,546,149,147,64865,
1635923749415,574,149,147,64865,
1635923749415,547,149,147,64865,
1635923749415,511,149,147,64865,
1635923749415,527,149,147,64865,
1635923749415,479,149,147,64865,
1635923749421,472,149,147,64865,
1635923749428,467,149,147,64865,
1635923749435,476,149,147,64865,
1635923749442,468,149,147,64865,
1635923749449,456,149,147,64865,
1635923749456,446,149,147,64865,
1635923749463,412,149,147,64865,
1635923749471,445,149,147,64865,
1635923749478,428,149,147,64865,
1635923749486,636,149,147,64865,
1635923749489,435,149,147,64865,
1635923749492,445,149,147,64865,
1635923749496,424,149,147,64865,
1635923749499,407,149,147,64865,
1635923749503,427,149,147,64865,
1635923749511,438,149,147,64865,
1635923749519,443,149,147,64865,
1635923749528,420,149,147,64865,
1635923749536,442,149,147,64865,
1635923749545,477,149,147,64865,
1635923749545,467,149,147,64865,
1635923749545,447,149,147,64865,
1635923749545,444,149,147,64865,
1635923749545,479,149,147,64865,
1635923749545,442,149,147,64865,
1635923749557,490,149,147,64865,
1635923749569,470,149,147,64865,
1635923749581,479,149,147,64865,
1635923749593,482,149,147,64865,
1635923749606,511,149,147,64865,
1635923749606,518,149,147,64865,
1635923749606,536,149,147,64865,
1635923749606,524,149,147,64865,
1635923749606,494,149,147,64865,
1635923749606,546,149,147,64865,
1635923749606,512,149,147,64865,
1635923749606,534,149,147,64865,
1635923749606,539,149,147,64865,
1635923749606,550,149,147,64865,
1635923749607,528,149,147,64865,
1635923749607,554,149,147,64865,
1635923749607,560,149,147,64865,
1635923749607,558,149,147,64865,
1635923749607,559,149,147,64865,
1635923749607,573,149,147,64865,
1635923749614,586,149,147,64865,
1635923749622,591,149,147,64865,
1635923749629,568,149,147,64865,
1635923749637,594,149,147,64865,
1635923749645,581,149,147,64865,
1635923749648,575,149,147,64865,
1635923749651,584,149,147,64865,
1635923749655,629,149,147,64865,
1635923749658,569,149,147,64865,
1635923749662,572,149,147,64865,
1635923749667,571,149,145,64866,
1635923749672,630,149,145,64866,
1635923749677,592,149,145,64866,
1635923749682,611,149,145,64866,
1635923749687,606,149,145,64866,
1635923749687,611,149,145,64866,
1635923749687,612,149,145,64866,
1635923749687,635,149,145,64866,
1635923749687,616,149,145,64866,
1635923749687,604,149,145,64866,
1635923749692,611,148,147,64867,
1635923749698,630,148,147,64867,
1635923749704,606,148,147,64867,
1635923749710,593,148,147,64867,
1635923749716,612,148,147,64867,
1635923749716,620,148,147,64867,
1635923749716,628,148,147,64867,
1635923749716,600,148,147,64867,
1635923749716,625,148,147,64867,
1635923749716,607,149,148,64867,
1635923749722,630,149,148,64867,
1635923749729,623,149,148,64867,
1635923749735,631,149,148,64867,
1635923749742,606,149,148,64867,
1635923749749,625,149,148,64867,
1635923749756,406,149,148,64867,
1635923749763,632,149,148,64867,
1635923749771,402,149,148,64867,
1635923749778,400,146,142,64865,
1635923749786,614,146,142,64865,
1635923749786,627,146,142,64865,
1635923749786,401,146,142,64865,
1635923749787,632,146,142,64865,
1635923749787,612,146,142,64865,
1635923749788,402,146,142,64865,
1635923749797,639,147,148,64869,
1635923749807,426,149,146,64867,
1635923749817,416,148,148,64866,
1635923749827,614,149,148,64869,
1635923749837,420,149,150,64869,
1635923749837,436,150,149,64868,
1635923749837,448,149,149,64869,
1635923749837,425,148,150,64868,
1635923749837,644,149,146,64866,
1635923749837,645,149,146,64865,
1635923749842,422,149,146,64863,
1635923749848,644,147,145,64861,
1635923749854,436,147,145,64861,
1635923749860,424,146,145,64865,
1635923749866,444,149,146,64865,
1635923749866,431,150,144,64864,
1635923749866,647,149,145,64865,
1635923749866,464,149,142,64868,
1635923749866,410,148,142,64867,
1635923749866,453,147,143,64867,
1635923749872,439,147,142,64868,
1635923749879,435,148,144,64866,
1635923749885,443,148,146,64864,
1635923749892,445,147,148,64865,
1635923749899,408,146,150,64864,
1635923749899,486,147,151,64866,
1635923749899,419,149,151,64871,
1635923749899,444,148,148,64872,
1635923749899,461,147,147,64871,
1635923749900,476,149,144,64870,
1635923749911,440,149,148,64867,
1635923749922,478,149,148,64867,
1635923749933,485,150,148,64865,
1635923749944,450,150,146,64862,
1635923749955,460,149,148,64861,
1635923749961,471,148,148,64864,
1635923749967,465,149,149,64866,
1635923749973,443,147,149,64870,
1635923749979,454,148,149,64869,
1635923749986,462,149,146,64868,
1635923749986,458,149,145,64869,
1635923749986,466,150,142,64865,
1635923749986,489,148,142,64864,
1635923749986,482,149,143,64863,
1635923749986,460,148,142,64862,
1635923749986,471,150,145,64863,
1635923749986,479,149,142,64866,
1635923749986,454,150,145,64869,
1635923749986,487,151,146,64871,
1635923749986,480,152,147,64871,
1635923749993,511,152,147,64871,
1635923750000,477,149,148,64869,
1635923750007,493,150,146,64866,
1635923750014,483,151,148,64865,
1635923750021,510,150,150,64861,
1635923750021,498,149,149,64863,
1635923750021,498,148,150,64864,
1635923750021,490,148,149,64865,
1635923750021,468,146,147,64868,
1635923750022,459,146,147,64868,
1635923750039,494,149,148,64868,
1635923750073,486,149,149,64869,
1635923750090,517,150,147,64868,
1635923750107,481,149,148,64869,
1635923750110,504,149,151,64867,
1635923750113,501,148,147,64865,
1635923750117,492,148,149,64865,
1635923750120,480,148,149,64865,
1635923750124,504,148,146,64867,
1635923750124,497,148,146,64863,
1635923750124,516,148,147,64863,
1635923750124,506,149,145,64864,
1635923750124,515,149,148,64862,
1635923750124,503,149,148,64862,
1635923750124,502,149,148,64862,
1635923750124,519,147,147,64866,
1635923750124,543,149,148,64867,
1635923750124,494,149,148,64867,
1635923750124,486,148,145,64867,
1635923750127,520,148,146,64869,
1635923750131,527,147,146,64870,
1635923750135,525,148,146,64867,
1635923750139,513,148,147,64866,
1635923750143,533,149,146,64868,
1635923750146,515,146,146,64867,
1635923750150,517,146,146,64867,
1635923750153,506,146,146,64867,
1635923750157,528,147,145,64866,
1635923750161,476,149,146,64866,
1635923750161,465,148,147,64863,
1635923750161,445,147,148,64863,
1635923750162,455,148,148,64864,
1635923750162,447,149,147,64865,
1635923750163,406,149,147,64867,
1635923750173,415,149,146,64872,
1635923750183,639,149,146,64872,
1635923750193,634,149,146,64872,
1635923750203,630,149,146,64872,
1635923750213,643,149,146,64872,
1635923750213,597,149,146,64872,
1635923750213,635,149,146,64872,
1635923750213,591,149,146,64872,
1635923750213,599,149,146,64872,
1635923750213,601,149,146,64872,
1635923750219,634,149,146,64872,
1635923750225,611,149,146,64872,
1635923750231,641,149,146,64872,
1635923750237,637,149,146,64872,
1635923750243,645,149,146,64872,
1635923750243,403,149,146,64872,
1635923750243,645,149,146,64872,
1635923750243,623,149,146,64872,
1635923750243,643,149,146,64872,
1635923750243,401,149,146,64872,
1635923750249,422,149,146,64872,
1635923750255,420,147,148,64867,
1635923750262,415,147,148,64867,
1635923750268,431,147,148,64867,
1635923750275,416,147,148,64867,
1635923750275,461,147,148,64867,
1635923750275,453,147,148,64867,
1635923750275,445,147,148,64867,
1635923750275,469,147,148,64867,
1635923750276,438,147,148,64867,
1635923750283,475,147,148,64867,
1635923750290,477,147,148,64867,
1635923750297,446,147,148,64867,
1635923750304,488,147,148,64867,
1635923750311,521,147,148,64867,
1635923750311,514,147,148,64867,
1635923750311,486,147,148,64867,
1635923750312,489,147,148,64867,
1635923750312,483,147,148,64867,
1635923750313,485,147,148,64867,
1635923750320,473,147,148,64867,
1635923750327,515,147,148,64867,
1635923750334,513,147,148,64867,
1635923750341,515,147,148,64867,
1635923750349,494,147,148,64867,
1635923750359,522,147,148,64867,
1635923750369,511,147,148,64867,
1635923750379,525,147,148,64867,
1635923750389,499,147,148,64867,
1635923750400,540,147,148,64867,
1635923750406,493,147,148,64867,
1635923750412,545,147,148,64867,
1635923750418,551,147,148,64867,
1635923750424,556,147,148,64867,
1635923750431,550,147,148,64867,
1635923750431,551,147,148,64867,
1635923750431,535,147,148,64867,
1635923750431,537,147,148,64867,
1635923750431,537,147,148,64867,
1635923750431,532,147,148,64867,
1635923750431,567,147,148,64867,
1635923750431,534,147,148,64867,
1635923750431,564,147,148,64867,
1635923750431,499,147,148,64867,
1635923750431,578,147,148,64867,
1635923750437,570,147,148,64867,
1635923750443,541,147,148,64867,
1635923750449,538,147,148,64867,
1635923750455,578,147,148,64867,
1635923750462,561,147,148,64867,
1635923750462,542,147,148,64867,
1635923750462,513,147,148,64867,
1635923750462,582,147,148,64867,
1635923750462,522,147,148,64867,
1635923750463,577,147,148,64867,
1635923750470,556,147,148,64867,
1635923750477,578,147,148,64867,
1635923750484,581,147,148,64867,
1635923750491,583,147,148,64867,
1635923750499,555,147,148,64867,
1635923750499,589,147,148,64867,
1635923750499,576,147,148,64867,
1635923750499,536,147,148,64867,
1635923750499,568,147,148,64867,
1635923750500,569,147,148,64867,
1635923750519,595,147,148,64867,
1635923750538,591,148,143,64866,
1635923750557,581,148,143,64866,
1635923750576,594,148,143,64866,
1635923750596,585,148,143,64866,
1635923750596,624,148,143,64866,
1635923750596,599,148,143,64866,
1635923750596,615,148,143,64866,
1635923750596,631,148,143,64866,
1635923750597,607,148,143,64866,
1635923750597,608,148,147,64868,
1635923750597,609,148,147,64868,
1635923750597,560,148,147,64868,
1635923750597,593,148,147,64868,
1635923750597,617,148,147,64868,
1635923750597,596,148,147,64868,
1635923750597,592,148,147,64868,
1635923750597,622,148,147,64868,
1635923750597,618,148,147,64868,
1635923750597,620,148,147,64868,
1635923750600,585,147,148,64865,
1635923750604,632,147,148,64865,
1635923750608,631,147,148,64865,
1635923750612,606,147,148,64865,
1635923750616,649,147,148,64865,
1635923750616,606,147,148,64865,
1635923750616,583,147,148,64865,
1635923750616,633,147,148,64865,
1635923750616,614,147,148,64865,
1635923750616,430,150,143,64864,
1635923750624,639,150,143,64864,
1635923750632,630,150,143,64864,
1635923750640,626,150,143,64864,
1635923750648,601,150,143,64864,
1635923750656,617,150,143,64864,
1635923750662,649,151,147,64868,
1635923750668,421,150,148,64868,
1635923750674,628,147,146,64866,
1635923750680,616,148,144,64866,
1635923750686,649,148,147,64865,
1635923750686,415,148,142,64865,
1635923750686,630,148,142,64868,
1635923750687,634,148,143,64865,
1635923750687,420,147,145,64865,
1635923750688,643,149,145,64866,
1635923750695,410,151,145,64866,
1635923750702,411,149,145,64867,
1635923750709,643,150,145,64867,
1635923750716,417,149,146,64865,
1635923750724,655,151,147,64865,
1635923750724,410,151,147,64866,
1635923750724,420,153,147,64868,
1635923750724,427,150,148,64868,
1635923750724,429,150,148,64867,
1635923750725,426,148,146,64868,
1635923750735,648,149,145,64866,
1635923750746,445,148,145,64865,
1635923750757,643,149,142,64867,
1635923750768,419,148,142,64866,
1635923750779,649,148,143,64864,
1635923750779,454,146,146,64867,
1635923750779,456,146,147,64866,
1635923750779,463,150,144,64867,
1635923750779,412,146,145,64867,
1635923750779,441,146,145,64864,
1635923750785,437,149,147,64866,
1635923750792,427,147,145,64866,
1635923750798,418,149,145,64866,
1635923750805,457,149,145,64868,
1635923750812,436,149,145,64868,
1635923750812,474,149,144,64867,
1635923750812,448,149,142,64869,
1635923750812,453,149,144,64869,
1635923750812,446,149,142,64866,
1635923750812,450,149,143,64865,
1635923750818,469,148,144,64865,
1635923750825,444,148,144,64865,
1635923750832,449,149,142,64866,
1635923750839,440,148,143,64867,
1635923750846,496,146,143,64867,
1635923750846,455,149,144,64867,
1635923750846,492,148,145,64865,
1635923750846,458,147,146,64866,
1635923750846,462,149,145,64867,
1635923750846,412,147,144,64867,
1635923750852,463,147,144,64867,
1635923750858,457,146,142,64867,
1635923750865,426,145,142,64867,
1635923750871,436,149,143,64866,
1635923750878,411,147,142,64866,
1635923750878,425,147,141,64866,
1635923750878,429,147,142,64868,
1635923750878,644,147,142,64866,
1635923750878,625,150,142,64866,
1635923750878,612,150,142,64866,
1635923750884,614,150,144,64867,
1635923750891,609,150,146,64867,
1635923750897,583,149,146,64868,
1635923750904,594,148,146,64868,
1635923750911,598,148,142,64870,
1635923750918,538,149,146,64868,
1635923750926,555,151,145,64868,
1635923750933,555,149,143,64867,
1635923750941,552,148,143,64868,
1635923750949,548,148,143,64868,
1635923750949,543,151,141,64867,
1635923750949,552,149,141,64865,
1635923750949,579,150,141,64863,
1635923750949,561,150,141,64863,
1635923750950,598,148,143,64865,
1635923750957,553,148,141,64864,
1635923750964,585,150,142,64865,
1635923750971,592,148,140,64868,
1635923750978,576,148,140,64868,
1635923750986,603,149,142,64866,
1635923750990,597,149,142,64866,
1635923750994,622,149,143,64868,
1635923750998,600,150,144,64869,
1635923751002,586,149,144,64869,
1635923751006,617,148,146,64867,
1635923751015,615,148,146,64869,
1635923751024,634,147,148,64868,
1635923751033,419,147,148,64868,
1635923751042,612,147,148,64868,
1635923751052,643,149,142,64866,
1635923751052,634,149,142,64866,
1635923751052,645,148,142,64865,
1635923751052,644,147,143,64866,
1635923751052,631,148,142,64867,
1635923751052,410,151,142,64866,
1635923751064,439,150,142,64867,
1635923751076,651,150,142,64867,
1635923751088,643,150,142,64867,
1635923751100,630,150,142,64867,
1635923751113,424,150,142,64867,
1635923751116,408,150,142,64867,
1635923751119,417,150,142,64867,
1635923751123,459,150,142,64867,
1635923751126,441,150,142,64867,
1635923751130,438,150,142,64867,
1635923751130,449,150,142,64867,
1635923751130,420,150,142,64867,
1635923751130,428,150,142,64867,
1635923751130,419,150,142,64867,
1635923751130,449,150,142,64867,
1635923751130,449,150,142,64867,
1635923751130,447,150,142,64867,
1635923751130,481,150,142,64867,
1635923751130,498,150,142,64867,
1635923751130,477,150,142,64867,
1635923751133,462,150,142,64867,
1635923751136,422,150,142,64867,
1635923751140,473,150,142,64867,
1635923751143,468,150,142,64867,
1635923751147,484,150,142,64867,
1635923751147,467,150,142,64867,
1635923751147,469,150,142,64867,
1635923751147,444,150,142,64867,
1635923751147,469,150,142,64867,
1635923751147,478,150,142,64867,
1635923751152,449,150,142,64867,
1635923751157,455,150,142,64867,
1635923751163,470,150,142,64867,
1635923751168,483,150,142,64867,
1635923751174,464,150,142,64867,
1635923751185,482,150,142,64867,
1635923751196,485,150,142,64867,
1635923751207,486,150,142,64867,
1635923751218,437,150,142,64867,
1635923751230,481,150,142,64867,
1635923751230,456,150,142,64867,
1635923751230,484,150,142,64867,
1635923751230,486,150,142,64867,
1635923751230,485,150,142,64867,
1635923751230,487,150,142,64867,
1635923751235,486,150,142,64867,
1635923751241,475,150,142,64867,
1635923751246,486,150,142,64867,
1635923751252,510,150,142,64867,
1635923751258,520,150,142,64867,
1635923751258,490,150,142,64867,
1635923751258,500,150,142,64867,
1635923751258,495,150,142,64867,
1635923751258,508,150,142,64867,
1635923751258,508,150,142,64867,
1635923751264,494,150,142,64867,
1635923751270,500,150,142,64867,
1635923751276,494,150,142,64867,
1635923751282,518,150,142,64867,
1635923751288,511,150,142,64867,
1635923751288,547,150,142,64867,
1635923751288,516,150,142,64867,
1635923751288,497,150,142,64867,
1635923751288,511,150,142,64867,
1635923751288,515,150,142,64867,
1635923751299,531,150,142,64867,
1635923751310,526,150,142,64867,
1635923751321,505,150,142,64867,
1635923751332,535,150,142,64867,
1635923751344,501,150,142,64867,
1635923751348,531,150,142,64867,
1635923751353,537,150,142,64867,
1635923751358,516,150,142,64867,
1635923751363,481,150,142,64867,
1635923751368,552,150,142,64867,
1635923751368,546,150,142,64867,
1635923751368,520,150,142,64867,
1635923751368,556,150,142,64867,
1635923751368,538,150,142,64867,
1635923751369,554,150,142,64867,
1635923751369,542,150,142,64867,
1635923751369,549,150,142,64867,
1635923751369,567,150,142,64867,
1635923751369,526,150,142,64867,
1635923751369,551,150,142,64867,
1635923751375,536,150,142,64867,
1635923751381,553,149,142,64869,
1635923751387,556,147,141,64870,
1635923751393,543,147,141,64870,
1635923751399,556,147,141,64870,
1635923751399,558,147,141,64870,
1635923751399,547,147,141,64870,
1635923751399,596,147,141,64870,
1635923751399,551,147,141,64870,
1635923751400,540,147,141,64870,
1635923751409,577,150,141,64866,
1635923751418,550,150,141,64866,
1635923751427,587,150,141,64866,
1635923751436,578,150,141,64866,
1635923751445,561,150,141,64866,
1635923751445,573,150,141,64866,
1635923751445,594,150,141,64866,
1635923751445,580,150,141,64866,
1635923751445,583,150,141,64866,
1635923751445,620,150,141,64866,
1635923751450,585,147,147,64867,
1635923751456,596,147,147,64867,
1635923751462,581,147,147,64867,
1635923751468,594,147,147,64867,
1635923751474,560,147,147,64867,
1635923751474,579,147,147,64867,
1635923751474,567,147,147,64867,
1635923751474,623,147,147,64867,
1635923751474,589,147,147,64867,
1635923751475,605,149,141,64869,
1635923751488,586,149,142,64867,
1635923751502,606,149,142,64867,
1635923751516,602,149,142,64867,
1635923751530,635,149,142,64867,
1635923751544,600,149,142,64867,
1635923751559,603,149,142,64867,
1635923751574,582,148,143,64867,
1635923751590,564,147,142,64868,
1635923751605,570,147,142,64867,
1635923751621,594,150,142,64866,
1635923751624,603,147,141,64868,
1635923751627,605,145,142,64867,
1635923751631,634,148,142,64865,
1635923751634,621,147,141,64867,
1635923751638,634,146,143,64866,
1635923751638,620,148,143,64868,
1635923751638,615,145,142,64869,
1635923751638,578,147,142,64870,
1635923751638,603,147,142,64867,
1635923751638,613,147,141,64867,
1635923751638,604,149,142,64866,
1635923751638,615,147,141,64865,
1635923751638,613,147,142,64866,
1635923751638,579,147,141,64869,
1635923751638,574,148,144,64867,
1635923751641,559,150,144,64870,
1635923751645,537,150,146,64869,
1635923751649,528,149,146,64868,
1635923751653,536,149,146,64869,
1635923751657,504,150,144,64869,
1635923751657,493,150,142,64868,
1635923751657,478,151,143,64865,
1635923751657,479,153,144,64864,
1635923751657,477,152,142,64864,
1635923751658,488,150,141,64868,
1635923751661,461,150,139,64868,
1635923751664,461,151,140,64867,
1635923751668,462,151,140,64867,
1635923751671,489,150,143,64867,
1635923751675,439,150,142,64867,
1635923751675,477,148,142,64867,
1635923751675,458,150,141,64868,
1635923751675,492,149,143,64868,
1635923751675,485,148,141,64866,
1635923751675,476,149,141,64868,
1635923751683,500,148,144,64868,
1635923751691,473,148,144,64868,
1635923751699,524,149,145,64867,
1635923751707,503,147,147,64867,
1635923751716,509,149,145,64867,
1635923751716,515,148,144,64866,
1635923751716,485,149,146,64867,
1635923751716,500,149,142,64867,
1635923751716,520,150,142,64867,
1635923751716,554,149,143,64866,
1635923751721,552,149,143,64866,
1635923751726,563,149,143,64866,
1635923751731,565,146,141,64868,
1635923751736,548,147,142,64866,
1635923751742,563,149,143,64866,
1635923751742,558,147,142,64865,
1635923751742,558,149,141,64866,
1635923751742,558,148,142,64866,
1635923751742,559,148,143,64865,
1635923751742,594,148,143,64865,
1635923751751,558,148,143,64865,
1635923751761,558,148,142,64869,
1635923751771,548,147,142,64870,
1635923751781,561,148,142,64871,
1635923751791,601,149,141,64868,
1635923751791,591,149,144,64869,
1635923751791,623,149,145,64865,
1635923751791,559,149,142,64866,
1635923751791,592,148,144,64865,
1635923751791,605,148,144,64865,
1635923751795,598,149,144,64865,
1635923751800,624,148,145,64866,
1635923751805,627,147,144,64867,
1635923751810,623,148,145,64866,
1635923751815,581,150,144,64865,
1635923751825,633,149,143,64868,
1635923751835,577,148,145,64868,
1635923751845,622,146,144,64870,
1635923751855,597,149,142,64868,
1635923751866,597,149,142,64868,
1635923751866,629,150,142,64866,
1635923751866,577,150,141,64868,
1635923751866,615,149,141,64869,
1635923751866,594,150,142,64870,
1635923751866,635,150,142,64870,
1635923751871,617,150,142,64866,
1635923751877,582,149,145,64866,
1635923751882,618,149,142,64865,
1635923751888,631,149,142,64865,
1635923751894,612,149,146,64866,
1635923751894,602,149,145,64866,
1635923751894,639,149,146,64867,
1635923751894,629,148,145,64868,
1635923751894,643,148,146,64869,
1635923751894,635,148,146,64869,
1635923751900,659,148,146,64869,
1635923751906,639,149,143,64866,
1635923751912,634,149,143,64866,
1635923751918,647,149,143,64866,
1635923751925,592,149,143,64866,
1635923751925,632,149,143,64866,
1635923751925,628,149,143,64866,
1635923751925,628,149,143,64866,
1635923751925,632,149,143,64866,
1635923751925,659,149,143,64866,
1635923751934,642,149,143,64866,
1635923751944,640,149,143,64866,
1635923751954,651,149,143,64866,
1635923751964,620,149,143,64866,
1635923751974,655,149,143,64866,
1635923751974,657,149,143,64866,
1635923751974,638,149,143,64866,
1635923751974,663,149,143,64866,
1635923751974,645,149,143,64866,
1635923751974,632,149,143,64866,
1635923751987,420,149,143,64866,
1635923752000,656,149,143,64866,
1635923752014,639,149,143,64866,
1635923752027,649,149,143,64866,
1635923752041,648,149,143,64866,
1635923752052,661,149,143,64866,
1635923752063,634,149,143,64866,
1635923752074,426,149,143,64866,
1635923752085,659,149,143,64866,
1635923752097,437,149,143,64866,
1635923752107,663,149,143,64866,
1635923752117,436,149,143,64866,
1635923752127,456,149,143,64866,
1635923752137,450,149,143,64866,
1635923752147,446,149,143,64866,
1635923752147,428,149,143,64866,
1635923752147,436,149,143,64866,
1635923752147,426,149,143,64866,
1635923752147,437,149,143,64866,
1635923752147,650,149,143,64866,
1635923752147,449,149,143,64866,
1635923752147,427,149,143,64866,
1635923752148,430,149,143,64866,
1635923752148,434,149,143,64866,
1635923752149,449,149,143,64866,
1635923752149,417,149,143,64866,
1635923752149,432,149,143,64866,
1635923752149,469,149,143,64866,
1635923752149,452,149,143,64866,
1635923752149,468,149,143,64866,
1635923752152,439,149,143,64866,
1635923752155,462,149,143,64866,
1635923752158,446,149,143,64866,
1635923752161,438,149,143,64866,
1635923752165,451,149,143,64866,
1635923752165,435,149,143,64866,
1635923752165,470,149,143,64866,
1635923752165,461,149,143,64866,
1635923752165,462,149,143,64866,
1635923752165,462,149,143,64866,
1635923752168,485,149,143,64866,
1635923752171,436,149,143,64866,
1635923752175,479,149,143,64866,
1635923752178,493,149,143,64866,
1635923752182,452,149,143,64866,
1635923752185,489,149,143,64866,
1635923752189,482,149,143,64866,
1635923752192,482,149,143,64866,
1635923752196,487,149,143,64866,
1635923752200,475,149,143,64866,
1635923752200,510,149,143,64866,
1635923752200,492,149,143,64866,
1635923752200,465,149,143,64866,
1635923752200,522,149,143,64866,
1635923752200,493,149,143,64866,
1635923752204,497,149,143,64866,
1635923752209,498,149,143,64866,
1635923752214,507,149,143,64866,
1635923752219,523,149,143,64866,
1635923752224,452,149,143,64866,
1635923752233,513,149,143,64866,
1635923752242,514,149,143,64866,
1635923752251,458,149,143,64866,
1635923752260,495,149,143,64866,
1635923752270,522,149,143,64866,
1635923752270,517,149,143,64866,
1635923752270,512,149,143,64866,
1635923752270,482,146,144,64866,
1635923752270,477,146,144,64866,
1635923752270,506,146,144,64866,
1635923752270,467,146,144,64866,
1635923752270,528,146,144,64866,
1635923752270,526,146,144,64866,
1635923752270,495,146,144,64866,
1635923752270,480,146,144,64866,
1635923752275,509,146,144,64866,
1635923752281,524,146,144,64866,
1635923752287,485,146,144,64866,
1635923752293,462,146,144,64866,
1635923752299,505,146,144,64866,
1635923752299,491,146,144,64866,
1635923752299,477,146,144,64866,
1635923752299,481,146,144,64866,
1635923752299,452,146,144,64866,
1635923752300,445,146,144,64866,
1635923752309,417,149,146,64869,
1635923752318,446,150,146,64869,
1635923752328,655,150,146,64869,
1635923752337,637,150,146,64869,
1635923752347,638,150,146,64869,
1635923752347,592,150,146,64869,
1635923752347,597,150,146,64869,
1635923752347,595,150,146,64869,
1635923752347,576,150,146,64869,
1635923752348,610,147,144,64867,
1635923752353,594,148,144,64865,
1635923752358,594,148,144,64865,
1635923752363,619,148,144,64865,
1635923752368,622,148,144,64865,
1635923752374,612,148,144,64865,
1635923752384,623,148,144,64865,
1635923752394,628,148,144,64865,
1635923752405,637,148,144,64865,
1635923752415,622,149,142,64868,
1635923752426,606,149,142,64868,
1635923752426,645,149,143,64867,
1635923752426,443,147,142,64867,
1635923752426,662,149,144,64866,
1635923752426,416,148,145,64865,
1635923752427,650,148,145,64866,
1635923752427,422,149,146,64866,
1635923752427,433,147,148,64866,
1635923752427,450,148,147,64866,
1635923752427,440,149,146,64864,
1635923752427,445,150,150,64867,
1635923752432,439,148,147,64869,
1635923752437,468,148,146,64870,
1635923752442,423,147,143,64869,
1635923752447,445,147,143,64871,
1635923752452,659,149,143,64870,
1635923752462,452,150,144,64867,
1635923752472,486,146,144,64866,
1635923752482,484,149,143,64867,
1635923752492,473,149,142,64865,
1635923752503,478,149,143,64864,
1635923752503,474,148,144,64863,
1635923752503,504,146,141,64864,
1635923752503,476,148,142,64865,
1635923752503,474,150,142,64864,
1635923752503,480,148,145,64865,
1635923752523,483,149,144,64867,
1635923752544,468,151,145,64868,
1635923752564,502,148,145,64866,
1635923752585,491,148,146,64868,
1635923752606,500,148,148,64867,
1635923752609,468,148,147,64867,
1635923752612,502,148,148,64869,
1635923752616,481,150,145,64867,
1635923752619,497,149,145,64867,
1635923752623,471,149,145,64864,
1635923752623,494,149,143,64865,
1635923752623,492,149,142,64865,
1635923752623,495,149,142,64868,
1635923752623,505,149,143,64869,
1635923752623,535,149,144,64868,
1635923752623,509,148,144,64869,
1635923752623,488,148,144,64866,
1635923752623,495,149,145,64866,
1635923752623,535,147,143,64867,
1635923752623,518,149,145,64867,
1635923752623,530,148,145,64866,
1635923752623,546,149,146,64866,
1635923752623,514,149,146,64866,
1635923752623,492,149,145,64867,
1635923752623,479,149,146,64868,
1635923752623,524,148,144,64868,
1635923752623,499,149,143,64870,
1635923752623,526,150,142,64870,
1635923752623,524,149,142,64868,
1635923752623,522,149,140,64868,
1635923752626,490,149,140,64868,
1635923752630,488,151,143,64865,
1635923752634,534,150,143,64864,
1635923752638,508,149,142,64864,
1635923752642,527,149,144,64866,
1635923752642,516,149,147,64866,
1635923752642,540,148,148,64869,
1635923752642,542,147,147,64871,
1635923752642,507,148,145,64869,
1635923752642,520,147,144,64866,
1635923752649,568,147,144,64866,
1635923752657,523,147,145,64865,
1635923752664,497,147,144,64867,
1635923752672,515,147,144,64866,
1635923752680,541,148,142,64869,
1635923752680,555,148,140,64870,
1635923752680,535,149,140,64869,
1635923752680,512,150,140,64870,
1635923752680,536,150,140,64870,
1635923752680,540,150,140,64870,
1635923752689,565,150,140,64863,
1635923752699,513,148,141,64865,
1635923752709,538,148,143,64864,
1635923752719,508,150,143,64864,
1635923752729,567,149,146,64865,
1635923752734,547,149,144,64868,
1635923752739,582,148,146,64869,
1635923752744,554,147,147,64867,
1635923752749,554,147,147,64867,
1635923752755,550,146,146,64867,
1635923752755,589,148,147,64865,
1635923752755,534,147,147,64864,
1635923752755,567,148,146,64865,
1635923752755,560,148,147,64870,
1635923752755,593,148,144,64870,
1635923752761,545,145,142,64870,
1635923752767,585,147,142,64869,
1635923752773,592,149,142,64867,
1635923752779,562,149,142,64867,
1635923752786,587,149,139,64867,
1635923752786,569,149,139,64867,
1635923752786,576,149,139,64867,
1635923752787,562,149,139,64867,
1635923752787,566,149,139,64867,
1635923752788,572,149,139,64867,
1635923752797,559,149,139,64867,
1635923752806,568,149,139,64867,
1635923752815,603,149,139,64867,
1635923752824,553,149,139,64867,
1635923752833,557,149,139,64867,
1635923752833,597,149,139,64867,
1635923752833,564,149,139,64867,
1635923752833,614,149,139,64867,
1635923752833,582,149,139,64867,
1635923752833,590,149,139,64867,
1635923752838,602,149,139,64867,
1635923752844,574,149,139,64867,
1635923752849,554,149,139,64867,
1635923752855,600,149,139,64867,
1635923752861,591,149,139,64867,
1635923752861,597,149,139,64867,
1635923752861,622,149,139,64867,
1635923752862,615,149,139,64867,
1635923752862,588,149,139,64867,
1635923752863,630,149,139,64867,
1635923752873,628,149,139,64867,
1635923752883,586,149,139,64867,
1635923752893,612,149,139,64867,
1635923752903,627,149,139,64867,
1635923752913,619,149,139,64867,
1635923752913,608,149,139,64867,
1635923752913,629,149,139,64867,
1635923752913,587,149,139,64867,
1635923752913,595,149,139,64867,
1635923752914,598,149,139,64867,
1635923752919,578,149,139,64867,
1635923752924,631,149,139,64867,
1635923752929,593,149,139,64867,
1635923752934,622,149,139,64867,
1635923752940,605,149,139,64867,
1635923752940,622,149,139,64867,
1635923752940,627,149,139,64867,
1635923752940,614,149,139,64867,
1635923752940,618,149,139,64867,
1635923752940,620,149,139,64867,
1635923752946,619,149,139,64867,
1635923752953,617,149,139,64867,
1635923752960,616,149,139,64867,
1635923752967,647,149,139,64867,
1635923752974,637,149,139,64867,
1635923752974,633,149,139,64867,
1635923752974,654,149,139,64867,
1635923752975,630,149,139,64867,
1635923752975,651,149,139,64867,
1635923752976,612,149,139,64867,
1635923752984,619,149,139,64867,
1635923752993,628,149,139,64867,
1635923753002,633,149,139,64867,
1635923753011,648,149,139,64867,
1635923753020,641,149,139,64867,
1635923753040,642,149,139,64867,
1635923753061,640,149,139,64867,
1635923753081,611,149,139,64867,
1635923753102,598,149,139,64867,
1635923753123,579,149,139,64867,
1635923753123,591,149,139,64867,
1635923753123,549,149,139,64867,
1635923753123,545,149,139,64867,
1635923753123,514,149,139,64867,
1635923753123,540,149,139,64867,
1635923753123,522,149,139,64867,
1635923753123,504,149,139,64867,
1635923753123,486,149,139,64867,
1635923753123,505,149,139,64867,
1635923753123,461,149,139,64867,
1635923753123,497,149,139,64867,
1635923753123,477,149,139,64867,
1635923753123,462,149,139,64867,
1635923753123,438,149,139,64867,
1635923753123,481,149,139,64867,
1635923753127,474,149,139,64867,
1635923753131,448,149,139,64867,
1635923753135,453,149,139,64867,
1635923753139,429,149,139,64867,
1635923753143,448,149,139,64867,
1635923753143,466,149,139,64867,
1635923753143,483,149,139,64867,
1635923753143,506,149,139,64867,
1635923753143,462,149,139,64867,
1635923753143,453,149,139,64867,
1635923753150,474,149,139,64867,
1635923753157,530,149,139,64867,
1635923753164,477,149,139,64867,
1635923753171,527,149,139,64867,
1635923753179,548,149,139,64867,
1635923753179,521,149,139,64867,
1635923753179,532,149,139,64867,
1635923753179,530,149,139,64867,
1635923753179,571,149,139,64867,
1635923753179,512,149,139,64867,
1635923753184,570,149,139,64867,
1635923753189,582,149,146,64866,
1635923753194,571,149,146,64866,
1635923753199,580,149,146,64866,
1635923753204,576,149,146,64866,
1635923753204,546,149,146,64866,
1635923753204,570,149,146,64866,
1635923753204,555,149,146,64866,
1635923753204,583,149,146,64866,
1635923753204,611,149,146,64866,
1635923753213,576,148,143,64865,
1635923753223,588,146,144,64865,
1635923753233,617,146,144,64865,
1635923753243,574,146,144,64865,
1635923753253,580,146,144,64865,
1635923753253,601,146,144,64865,
1635923753253,586,146,144,64865,
1635923753253,605,146,144,64865,
1635923753253,573,146,144,64865,
1635923753253,627,146,144,64865,
1635923753258,608,146,144,64865,
1635923753264,615,146,144,64865,
1635923753269,620,146,144,64865,
1635923753275,616,146,144,64865,
1635923753281,605,146,144,64865,
1635923753281,612,146,144,64865,
1635923753281,602,146,144,64865,
1635923753281,598,146,144,64865,
1635923753281,619,146,144,64865,
1635923753281,624,149,144,64865,
1635923753287,635,149,144,64865,
1635923753293,615,149,144,64865,
1635923753299,623,149,144,64865,
1635923753305,620,149,144,64865,
1635923753311,631,149,144,64865,
1635923753320,624,149,144,64869,
1635923753330,661,149,146,64868,
1635923753340,655,149,146,64868,
1635923753350,629,147,147,64869,
1635923753360,606,149,144,64868,
1635923753360,633,151,147,64867,
1635923753360,603,148,145,64868,
1635923753360,642,149,143,64868,
1635923753360,647,148,143,64867,
1635923753360,664,148,143,64867,
1635923753365,622,149,145,64866,
1635923753370,643,149,142,64866,
1635923753375,653,149,143,64867,
1635923753380,622,149,143,64867,
1635923753386,670,151,142,64863,
1635923753386,440,150,145,64864,
1635923753386,663,149,144,64864,
1635923753387,646,150,147,64864,
1635923753387,426,149,149,64867,
1635923753388,651,149,146,64867,
1635923753398,636,148,145,64866,
1635923753409,641,148,143,64867,
1635923753419,655,148,145,64867,
1635923753430,428,150,145,64867,
1635923753441,662,150,145,64866,
1635923753441,648,147,144,64866,
1635923753441,639,146,144,64866,
1635923753441,616,149,143,64866,
1635923753441,425,148,143,64867,
1635923753441,426,149,141,64865,
1635923753445,464,148,144,64865,
1635923753450,671,148,143,64866,
1635923753454,437,147,144,64866,
1635923753459,668,149,145,64866,
1635923753464,661,148,144,64868,
1635923753464,669,149,147,64867,
1635923753464,439,148,148,64867,
1635923753464,671,149,147,64868,
1635923753464,669,147,149,64866,
1635923753464,428,149,148,64865,
1635923753474,665,149,147,64864,
1635923753485,432,149,147,64864,
1635923753495,440,148,147,64870,
1635923753506,454,149,145,64868,
1635923753517,467,149,145,64866,
1635923753517,448,148,143,64868,
1635923753517,436,147,141,64866,
1635923753517,431,149,142,64866,
1635923753517,460,147,143,64867,
